,index,midi_note_num,diatonic_note_num,chromatic_pitch_class,onset,duration,velocity,bar_count,relative_chromatic_pitch,relative_diatonic_pitch,chromatic_scale_degree,diatonic_scale_degree,chromatic_interval,diatonic_interval,parsons_code,parsons_cumsum
0,0,71,35,11,0.0,4.0,105,0,4,2,4,3,0,0,0,0
1,1,71,35,11,4.0,3.0,95,0,4,2,4,3,0,0,0,0
2,3,74,37,2,8.0,3.0,105,1,7,4,7,5,2,1,1,1
3,5,67,33,7,12.0,2.0,95,1,0,0,0,1,0,0,-1,0
4,8,76,38,4,16.0,2.0,105,2,9,5,9,6,2,1,1,1
5,13,72,36,0,24.0,1.0,105,3,5,3,5,4,1,1,-1,0
6,17,74,37,2,28.0,2.0,95,3,7,4,7,5,7,4,1,1
7,20,64,31,4,32.0,2.0,105,4,-3,-2,9,6,-2,-1,-1,0
8,22,69,34,9,36.0,2.0,95,4,2,1,2,2,-3,-2,1,1
9,25,62,30,2,40.0,2.0,105,5,-5,-3,7,5,-4,-2,-1,0
10,27,71,35,11,44.0,1.0,95,5,4,2,4,3,-3,-2,1,1
11,31,64,31,4,48.0,2.0,105,6,-3,-2,9,6,-2,-1,-1,0
12,34,71,35,11,52.0,0.5,95,6,4,2,4,3,0,0,1,1
13,38,67,33,7,56.0,5.0,105,7,0,0,0,1,1,1,-1,0
14,42,71,35,11,64.0,4.0,105,8,4,2,4,3,2,1,1,1
15,43,71,35,11,68.0,3.0,95,8,4,2,4,3,0,0,0,1
16,45,74,37,2,72.0,3.0,105,9,7,4,7,5,2,1,1,2
17,47,67,33,7,76.0,2.0,95,9,0,0,0,1,0,0,-1,1
18,50,76,38,4,80.0,2.0,105,10,9,5,9,6,2,1,1,2
19,55,72,36,0,88.0,1.0,105,11,5,3,5,4,1,1,-1,1
20,59,74,37,2,92.0,2.0,95,11,7,4,7,5,7,4,1,2
21,62,64,31,4,96.0,2.0,105,12,-3,-2,9,6,-2,-1,-1,1
22,64,69,34,9,100.0,2.0,95,12,2,1,2,2,-3,-2,1,2
23,67,62,30,2,104.0,2.0,105,13,-5,-3,7,5,-4,-2,-1,1
24,69,71,35,11,108.0,1.0,95,13,4,2,4,3,-3,-2,1,2
25,73,64,31,4,112.0,2.0,105,14,-3,-2,9,6,-2,-1,-1,1
26,76,71,35,11,116.0,0.5,95,14,4,2,4,3,0,0,1,2
27,80,67,33,7,120.0,4.0,105,15,0,0,0,1,1,1,-1,1
28,81,67,33,7,124.0,1.0,95,15,0,0,0,1,0,0,0,1
29,85,74,37,2,128.0,4.0,105,16,7,4,7,5,2,1,1,2
30,86,76,38,4,132.0,3.0,95,16,9,5,9,6,2,1,1,3
31,88,72,36,0,136.0,1.0,105,17,5,3,5,4,-2,-1,-1,2
32,92,74,37,2,140.0,2.0,95,17,7,4,7,5,7,4,1,3
33,95,71,35,11,144.0,1.0,105,18,4,2,4,3,-1,-1,-1,2
34,99,64,31,4,148.0,1.0,95,18,-3,-2,9,6,-2,-1,-1,1
35,103,71,35,11,152.0,1.0,105,19,4,2,4,3,0,0,1,2
36,107,62,30,2,156.0,2.0,95,19,-5,-3,7,5,-9,-5,-1,1
37,110,64,31,4,160.0,2.0,105,20,-3,-2,9,6,-2,-1,1,2
38,112,69,34,9,164.0,3.0,95,20,2,1,2,2,-3,-2,1,3
39,114,62,30,2,168.0,2.0,105,21,-5,-3,7,5,-4,-2,-1,2
40,116,71,35,11,172.0,1.0,95,21,4,2,4,3,-3,-2,1,3
41,120,64,31,4,176.0,2.0,105,22,-3,-2,9,6,-2,-1,-1,2
42,123,71,35,11,180.0,0.5,95,22,4,2,4,3,0,0,1,3
43,127,66,32,6,184.0,1.0,105,23,-1,-1,11,7,0,0,-1,2
44,130,67,33,7,188.0,1.0,95,23,0,0,0,1,0,0,1,3
45,134,74,37,2,192.0,1.0,105,24,7,4,7,5,2,1,1,4
46,138,76,38,4,196.0,2.0,95,24,9,5,9,6,2,1,1,5
47,141,72,36,0,200.0,1.0,105,25,5,3,5,4,-2,-1,-1,4
48,145,74,37,2,204.0,1.0,95,25,7,4,7,5,-2,-1,1,5
49,149,79,40,7,208.0,1.0,105,26,12,7,0,1,1,1,1,6
50,153,76,38,4,212.0,2.0,95,26,9,5,9,6,-3,-2,-1,5
51,156,69,34,9,216.0,1.0,105,27,2,1,2,2,-2,-1,-1,4
52,167,64,31,4,228.0,2.0,105,28,-3,-2,9,6,-2,-1,-1,3
53,169,69,34,9,232.0,3.0,95,28,2,1,2,2,-3,-2,1,4
54,171,62,30,2,236.0,2.0,105,29,-5,-3,7,5,-4,-2,-1,3
55,173,71,35,11,240.0,1.0,95,29,4,2,4,3,-3,-2,1,4
56,177,64,31,4,244.0,2.0,105,30,-3,-2,9,6,-2,-1,-1,3
57,180,71,35,11,248.0,0.5,95,30,4,2,4,3,0,0,1,4
58,184,66,32,6,252.0,1.0,105,31,-1,-1,11,7,0,0,-1,3
59,190,71,35,11,260.0,2.0,105,32,4,2,4,3,2,1,1,4
60,193,71,35,11,264.0,2.0,95,32,4,2,4,3,2,1,0,4
61,196,74,37,2,268.0,6.0,105,33,7,4,7,5,2,1,1,5
62,199,76,38,4,276.0,4.0,105,34,9,5,9,6,2,1,1,6
63,200,76,38,4,280.0,1.0,95,34,9,5,9,6,0,0,0,6
64,204,72,36,0,284.0,1.0,105,35,5,3,5,4,1,1,-1,5
65,208,74,37,2,288.0,2.0,95,35,7,4,7,5,7,4,1,6
66,211,64,31,4,292.0,2.0,105,36,-3,-2,9,6,-2,-1,-1,5
67,213,69,34,9,296.0,3.0,95,36,2,1,2,2,-3,-2,1,6
68,215,62,30,2,300.0,2.0,105,37,-5,-3,7,5,-4,-2,-1,5
69,217,71,35,11,304.0,1.0,95,37,4,2,4,3,-3,-2,1,6
70,221,64,31,4,308.0,2.0,105,38,-3,-2,9,6,-2,-1,-1,5
71,224,71,35,11,312.0,0.5,95,38,4,2,4,3,0,0,1,6
72,228,67,33,7,316.0,2.0,105,39,0,0,0,1,1,1,-1,5
73,230,67,33,7,320.0,1.0,95,39,0,0,0,1,0,0,0,5
74,234,71,35,11,324.0,2.0,105,40,4,2,4,3,2,1,1,6
75,237,71,35,11,328.0,2.0,95,40,4,2,4,3,2,1,0,6
76,240,74,37,2,332.0,8.0,105,41,7,4,7,5,2,1,1,7
77,242,76,38,4,344.0,1.0,95,41,9,5,9,6,0,0,1,8
78,246,72,36,0,348.0,1.0,105,42,5,3,5,4,1,1,-1,7
79,250,74,37,2,352.0,2.0,95,42,7,4,7,5,7,4,1,8
80,253,64,31,4,356.0,2.0,105,43,-3,-2,9,6,-2,-1,-1,7
81,255,69,34,9,360.0,3.0,95,43,2,1,2,2,-3,-2,1,8
82,257,62,30,2,364.0,2.0,105,44,-5,-3,7,5,-4,-2,-1,7
83,259,71,35,11,368.0,1.0,95,44,4,2,4,3,-3,-2,1,8
84,263,64,31,4,372.0,2.0,105,45,-3,-2,9,6,-2,-1,-1,7
85,266,71,35,11,376.0,0.5,95,45,4,2,4,3,0,0,1,8
86,270,67,33,7,380.0,2.0,105,46,0,0,0,1,1,1,-1,7
87,272,67,33,7,384.0,1.0,95,46,0,0,0,1,0,0,0,7
88,276,74,37,2,388.0,4.0,105,47,7,4,7,5,2,1,1,8
89,277,76,38,4,392.0,2.0,95,47,9,5,9,6,2,1,1,9
90,280,72,36,0,396.0,1.0,105,48,5,3,5,4,-2,-1,-1,8
91,284,74,37,2,400.0,2.0,95,48,7,4,7,5,7,4,1,9
92,287,71,35,11,404.0,1.0,105,49,4,2,4,3,-1,-1,-1,8
93,291,64,31,4,408.0,1.0,95,49,-3,-2,9,6,-2,-1,-1,7
94,295,71,35,11,412.0,1.0,105,50,4,2,4,3,0,0,1,8
95,299,62,30,2,416.0,2.0,95,50,-5,-3,7,5,-9,-5,-1,7
96,302,64,31,4,420.0,2.0,105,51,-3,-2,9,6,-2,-1,1,8
97,304,69,34,9,424.0,3.0,95,51,2,1,2,2,-3,-2,1,9
98,306,62,30,2,428.0,2.0,105,52,-5,-3,7,5,-4,-2,-1,8
99,308,71,35,11,432.0,1.0,95,52,4,2,4,3,-3,-2,1,9
100,312,64,31,4,436.0,2.0,105,53,-3,-2,9,6,-2,-1,-1,8
101,315,71,35,11,440.0,0.5,95,53,4,2,4,3,0,0,1,9
102,319,66,32,6,444.0,1.0,105,54,-1,-1,11,7,0,0,-1,8
103,323,67,33,7,448.0,1.0,95,54,0,0,0,1,1,1,1,9
104,327,74,37,2,452.0,1.0,105,55,7,4,7,5,2,1,1,10
105,331,76,38,4,456.0,2.0,95,55,9,5,9,6,2,1,1,11
106,334,72,36,0,460.0,1.0,105,56,5,3,5,4,1,1,-1,10
107,338,74,37,2,464.0,1.0,95,56,7,4,7,5,-2,-1,1,11
108,342,79,40,7,468.0,1.0,105,57,12,7,0,1,1,1,1,12
109,346,76,38,4,472.0,2.0,95,57,9,5,9,6,-3,-2,-1,11
110,349,69,34,9,476.0,1.0,105,58,2,1,2,2,-2,-1,-1,10
111,359,64,31,4,488.0,2.0,105,59,-3,-2,9,6,-2,-1,-1,9
112,361,69,34,9,492.0,3.0,95,59,2,1,2,2,-3,-2,1,10
113,363,62,30,2,496.0,2.0,105,60,-5,-3,7,5,-4,-2,-1,9
114,365,71,35,11,500.0,1.0,95,60,4,2,4,3,-3,-2,1,10
115,369,64,31,4,504.0,2.0,105,61,-3,-2,9,6,-2,-1,-1,9
116,372,71,35,11,508.0,0.5,95,61,4,2,4,3,0,0,1,10
117,376,67,33,7,512.0,2.0,105,62,0,0,0,1,1,1,-1,9
118,378,67,33,7,516.0,1.0,95,62,0,0,0,1,0,0,0,9
119,382,71,35,11,520.0,4.0,105,63,4,2,4,3,2,1,1,10
120,383,71,35,11,524.0,3.0,95,63,4,2,4,3,0,0,0,10
121,385,74,37,2,528.0,6.0,105,64,7,4,7,5,2,1,1,11
122,388,76,38,4,536.0,2.0,105,65,9,5,9,6,2,1,1,12
123,393,72,36,0,544.0,1.0,105,66,5,3,5,4,1,1,-1,11
124,397,74,37,2,548.0,2.0,95,66,7,4,7,5,7,4,1,12
125,400,64,31,4,552.0,2.0,105,67,-3,-2,9,6,-2,-1,-1,11
126,402,69,34,9,556.0,3.0,95,67,2,1,2,2,-3,-2,1,12
127,404,62,30,2,560.0,2.0,105,68,-5,-3,7,5,-4,-2,-1,11
128,406,71,35,11,564.0,1.0,95,68,4,2,4,3,-3,-2,1,12
129,410,64,31,4,568.0,2.0,105,69,-3,-2,9,6,-2,-1,-1,11
130,413,71,35,11,572.0,0.5,95,69,4,2,4,3,0,0,1,12
131,417,67,33,7,576.0,2.0,105,70,0,0,0,1,1,1,-1,11
132,419,67,33,7,580.0,1.0,95,70,0,0,0,1,0,0,0,11
133,426,71,35,11,588.0,2.0,95,70,4,2,4,3,2,1,1,12
134,429,74,37,2,592.0,6.0,105,71,7,4,7,5,2,1,1,13
135,432,76,38,4,600.0,2.0,105,72,9,5,9,6,2,1,1,14
136,437,72,36,0,608.0,1.0,105,73,5,3,5,4,1,1,-1,13
137,441,74,37,2,612.0,2.0,95,73,7,4,7,5,7,4,1,14
138,444,64,31,4,616.0,2.0,105,74,-3,-2,9,6,-2,-1,-1,13
139,446,69,34,9,620.0,3.0,95,74,2,1,2,2,-3,-2,1,14
140,448,62,30,2,624.0,2.0,105,75,-5,-3,7,5,-4,-2,-1,13
141,450,71,35,11,628.0,1.0,95,75,4,2,4,3,-3,-2,1,14
142,454,64,31,4,632.0,2.0,105,76,-3,-2,9,6,-2,-1,-1,13
143,457,71,35,11,636.0,0.5,95,76,4,2,4,3,0,0,1,14
144,461,67,33,7,640.0,4.0,105,77,0,0,0,1,1,1,-1,13
145,462,67,33,7,644.0,1.0,95,77,0,0,0,1,0,0,0,13
146,466,74,37,2,648.0,3.0,105,78,7,4,7,5,2,1,1,14
147,468,76,38,4,652.0,3.0,95,78,9,5,9,6,5,3,1,15
148,470,72,36,0,656.0,1.0,105,79,5,3,5,4,-2,-1,-1,14
149,474,74,37,2,660.0,2.0,95,79,7,4,7,5,7,4,1,15
150,477,71,35,11,664.0,1.0,105,80,4,2,4,3,-1,-1,-1,14
151,481,64,31,4,668.0,1.0,95,80,-3,-2,9,6,-2,-1,-1,13
152,485,71,35,11,672.0,1.0,105,81,4,2,4,3,0,0,1,14
153,489,62,30,2,676.0,2.0,95,81,-5,-3,7,5,-9,-5,-1,13
154,492,64,31,4,680.0,2.0,105,82,-3,-2,9,6,-2,-1,1,14
155,494,69,34,9,684.0,2.0,95,82,2,1,2,2,-3,-2,1,15
156,497,62,30,2,688.0,2.0,105,83,-5,-3,7,5,-4,-2,-1,14
157,499,71,35,11,692.0,1.0,95,83,4,2,4,3,-3,-2,1,15
158,503,64,31,4,696.0,2.0,105,84,-3,-2,9,6,-2,-1,-1,14
159,506,71,35,11,700.0,0.5,95,84,4,2,4,3,0,0,1,15
160,510,67,33,7,704.0,2.0,105,85,0,0,0,1,1,1,-1,14
161,512,67,33,7,708.0,1.0,95,85,0,0,0,1,0,0,0,14
162,516,74,37,2,712.0,1.0,105,86,7,4,7,5,2,1,1,15
163,520,76,38,4,716.0,2.0,95,86,9,5,9,6,2,1,1,16
164,523,72,36,0,720.0,1.0,105,87,5,3,5,4,1,1,-1,15
165,527,74,37,2,724.0,1.0,95,87,7,4,7,5,-2,-1,1,16
166,531,79,40,7,728.0,1.0,105,88,12,7,0,1,1,1,1,17
167,535,76,38,4,732.0,2.0,95,88,9,5,9,6,-3,-2,-1,16
168,538,69,34,9,736.0,1.0,105,89,2,1,2,2,-2,-1,-1,15
169,542,74,37,2,740.0,3.0,95,89,7,4,7,5,-4,-2,1,16
170,544,71,35,11,744.0,1.0,105,90,4,2,4,3,-1,-1,-1,15
171,548,64,31,4,748.0,2.0,95,90,-3,-2,9,6,-2,-1,-1,14
172,550,69,34,9,752.0,3.0,105,91,2,1,2,2,-3,-2,1,15
173,552,62,30,2,756.0,2.0,95,91,-5,-3,7,5,-4,-2,-1,14
174,554,71,35,11,760.0,1.0,105,92,4,2,4,3,-3,-2,1,15
175,558,64,31,4,764.0,2.0,95,92,-3,-2,9,6,-2,-1,-1,14
176,561,71,35,11,768.0,0.5,105,93,4,2,4,3,0,0,1,15
177,565,67,33,7,772.0,2.0,95,93,0,0,0,1,1,1,-1,14
178,568,67,33,7,776.0,8.0,105,94,0,0,0,1,1,1,0,14
