,index,midi_note_num,diatonic_note_num,chromatic_pitch_class,onset,duration,velocity,bar_count,relative_chromatic_pitch,relative_diatonic_pitch,chromatic_scale_degree,diatonic_scale_degree,chromatic_interval,diatonic_interval,parsons_code,parsons_cumsum
0,1,81,41,9,1.0,2.0,105,0,19,11,7,5,0,0,0,0
1,3,73,36,1,5.0,2.0,95,0,11,6,11,7,-3,-2,-1,-1
2,6,78,39,6,9.0,1.0,105,1,16,9,4,3,2,1,1,0
3,10,71,35,11,13.0,3.0,95,1,9,5,9,6,-2,-1,-1,-1
4,12,74,37,2,17.0,1.0,105,2,12,7,0,1,1,1,1,0
5,16,71,35,11,21.0,2.0,95,2,9,5,9,6,-2,-1,-1,-1
6,19,76,38,4,25.0,1.0,105,3,14,8,2,2,2,1,1,0
7,23,69,34,9,29.0,2.0,95,3,7,4,7,5,-2,-1,-1,-1
8,25,81,41,9,33.0,2.0,105,4,19,11,7,5,5,3,1,0
9,27,73,36,1,37.0,2.0,95,4,11,6,11,7,-3,-2,-1,-1
10,30,78,39,6,41.0,1.0,105,5,16,9,4,3,2,1,1,0
11,34,71,35,11,45.0,3.0,95,5,9,5,9,6,-2,-1,-1,-1
12,36,74,37,2,49.0,1.0,105,6,12,7,0,1,1,1,1,0
13,40,78,39,6,53.0,1.0,95,6,16,9,4,3,2,1,1,1
14,44,76,38,4,57.0,1.0,105,7,14,8,2,2,7,4,-1,0
15,48,69,34,9,61.0,6.0,95,7,7,4,7,5,2,1,-1,-1
16,49,76,38,4,67.0,1.0,105,8,14,8,2,2,7,4,1,0
17,50,81,41,9,68.0,2.0,105,9,19,11,7,5,5,3,1,1
18,52,73,36,1,72.0,2.0,95,9,11,6,11,7,-3,-2,-1,0
19,55,78,39,6,76.0,1.0,105,10,16,9,4,3,2,1,1,1
20,59,71,35,11,80.0,3.0,95,10,9,5,9,6,-2,-1,-1,0
21,61,74,37,2,84.0,1.0,105,11,12,7,0,1,1,1,1,1
22,65,71,35,11,88.0,2.0,95,11,9,5,9,6,-2,-1,-1,0
23,68,76,38,4,92.0,1.0,105,12,14,8,2,2,2,1,1,1
24,72,69,34,9,96.0,2.0,95,12,7,4,7,5,-2,-1,-1,0
25,74,81,41,9,100.0,2.0,105,13,19,11,7,5,5,3,1,1
26,76,73,36,1,104.0,2.0,95,13,11,6,11,7,-3,-2,-1,0
27,79,78,39,6,108.0,1.0,105,14,16,9,4,3,2,1,1,1
28,83,71,35,11,112.0,3.0,95,14,9,5,9,6,-2,-1,-1,0
29,85,74,37,2,116.0,1.0,105,15,12,7,0,1,1,1,1,1
30,89,78,39,6,120.0,1.0,95,15,16,9,4,3,2,1,1,2
31,93,76,38,4,124.0,1.0,105,16,14,8,2,2,7,4,-1,1
32,97,69,34,9,128.0,6.0,95,16,7,4,7,5,2,1,-1,0
33,98,71,35,11,134.0,1.0,105,17,9,5,9,6,2,1,1,1
34,100,74,37,2,136.0,1.0,105,18,12,7,0,1,1,1,1,2
35,104,73,36,1,140.0,1.0,95,18,11,6,11,7,2,1,-1,1
36,108,74,37,2,144.0,1.0,105,19,12,7,0,1,1,1,1,2
37,112,73,36,1,148.0,1.0,95,19,11,6,11,7,2,1,-1,1
38,116,76,38,4,152.0,1.0,105,20,14,8,2,2,3,2,1,2
39,120,73,36,1,156.0,1.0,95,20,11,6,11,7,2,1,-1,1
40,124,74,37,2,160.0,1.0,105,21,12,7,0,1,1,1,1,2
41,128,73,36,1,164.0,1.0,95,21,11,6,11,7,-1,-1,-1,1
42,132,79,40,7,168.0,4.0,105,22,17,10,5,4,3,2,1,2
43,133,79,40,7,172.0,1.0,95,22,17,10,5,4,0,0,0,2
44,137,81,41,9,176.0,1.0,105,23,19,11,7,5,5,3,1,3
45,141,74,37,2,180.0,1.0,95,23,12,7,0,1,-2,-1,-1,2
46,145,69,34,9,184.0,1.0,105,24,7,4,7,5,-7,-4,-1,1
47,149,74,37,2,188.0,1.0,95,24,12,7,0,1,1,1,1,2
48,153,81,41,9,192.0,1.0,105,25,19,11,7,5,5,3,1,3
49,157,74,37,2,196.0,1.0,95,25,12,7,0,1,-2,-1,-1,2
50,161,73,36,1,200.0,2.0,105,26,11,6,11,7,-3,-2,-1,1
51,164,73,36,1,204.0,1.0,95,26,11,6,11,7,2,1,0,1
52,168,81,41,9,208.0,1.0,105,27,19,11,7,5,5,3,1,2
53,172,74,37,2,212.0,1.0,95,27,12,7,0,1,-2,-1,-1,1
54,176,71,35,11,216.0,4.0,105,28,9,5,9,6,-5,-3,-1,0
55,177,73,36,1,220.0,1.0,95,28,11,6,11,7,2,1,1,1
56,181,73,36,1,224.0,1.0,105,29,11,6,11,7,4,2,0,1
57,185,71,35,11,228.0,1.0,95,29,9,5,9,6,2,1,-1,0
58,189,71,35,11,232.0,2.0,105,30,9,5,9,6,4,2,0,0
59,191,69,34,9,236.0,2.0,95,30,7,4,7,5,-7,-4,-1,-1
60,194,74,37,2,240.0,1.0,105,31,12,7,0,1,1,1,1,0
61,198,73,36,1,244.0,1.0,95,31,11,6,11,7,2,1,-1,-1
62,202,74,37,2,248.0,1.0,105,32,12,7,0,1,1,1,1,0
63,206,73,36,1,252.0,1.0,95,32,11,6,11,7,2,1,-1,-1
64,210,76,38,4,256.0,1.0,105,33,14,8,2,2,3,2,1,0
65,214,73,36,1,260.0,1.0,95,33,11,6,11,7,2,1,-1,-1
66,218,74,37,2,264.0,1.0,105,34,12,7,0,1,1,1,1,0
67,222,73,36,1,268.0,1.0,95,34,11,6,11,7,-1,-1,-1,-1
68,226,79,40,7,272.0,4.0,105,35,17,10,5,4,3,2,1,0
69,227,79,40,7,276.0,1.0,95,35,17,10,5,4,0,0,0,0
70,231,81,41,9,280.0,1.0,105,36,19,11,7,5,5,3,1,1
71,235,74,37,2,284.0,1.0,95,36,12,7,0,1,-2,-1,-1,0
72,239,69,34,9,288.0,1.0,105,37,7,4,7,5,-7,-4,-1,-1
73,243,74,37,2,292.0,1.0,95,37,12,7,0,1,1,1,1,0
74,247,81,41,9,296.0,1.0,105,38,19,11,7,5,5,3,1,1
75,251,74,37,2,300.0,1.0,95,38,12,7,0,1,-2,-1,-1,0
76,255,73,36,1,304.0,2.0,105,39,11,6,11,7,-3,-2,-1,-1
77,258,73,36,1,308.0,1.0,95,39,11,6,11,7,2,1,0,-1
78,262,81,41,9,312.0,1.0,105,40,19,11,7,5,5,3,1,0
79,266,74,37,2,316.0,1.0,95,40,12,7,0,1,-2,-1,-1,-1
80,270,71,35,11,320.0,4.0,105,41,9,5,9,6,-5,-3,-1,-2
81,271,73,36,1,324.0,1.0,95,41,11,6,11,7,2,1,1,-1
82,275,73,36,1,328.0,1.0,105,42,11,6,11,7,4,2,0,-1
83,279,71,35,11,332.0,1.0,95,42,9,5,9,6,2,1,-1,-2
84,283,71,35,11,336.0,2.0,105,43,9,5,9,6,4,2,0,-2
85,285,69,34,9,340.0,2.0,95,43,7,4,7,5,-7,-4,-1,-3
