,index,midi_note_num,diatonic_note_num,chromatic_pitch_class,onset,duration,velocity,bar_count,relative_chromatic_pitch,relative_diatonic_pitch,chromatic_scale_degree,diatonic_scale_degree,chromatic_interval,diatonic_interval,parsons_code,parsons_cumsum
0,1,67,33,7,1.0,2.0,105,0,3,2,3,3,0,0,0,0
1,3,67,33,7,4.0,1.0,95,0,3,2,3,3,0,0,0,0
2,6,69,34,9,7.0,2.0,105,1,5,3,5,4,2,1,1,1
3,8,69,34,9,10.0,1.0,95,1,5,3,5,4,0,0,0,1
4,11,71,35,11,13.0,2.0,105,2,7,4,7,5,2,1,1,2
5,13,71,35,11,16.0,1.0,95,2,7,4,7,5,0,0,0,2
6,16,71,35,11,19.0,2.0,105,3,7,4,7,5,4,2,0,2
7,18,64,31,4,22.0,2.0,95,3,0,0,0,1,0,0,-1,1
8,20,67,33,7,25.0,2.0,105,4,3,2,3,3,5,3,1,2
9,22,67,33,7,28.0,1.0,95,4,3,2,3,3,0,0,0,2
10,25,69,34,9,31.0,2.0,105,5,5,3,5,4,2,1,1,3
11,27,69,34,9,34.0,1.0,95,5,5,3,5,4,0,0,0,3
12,30,74,37,2,37.0,1.0,105,6,10,6,10,7,2,1,1,4
13,33,72,36,0,40.0,1.0,95,6,8,5,8,6,1,1,-1,3
14,36,67,33,7,43.0,2.0,105,7,3,2,3,3,-2,-1,-1,2
15,38,64,31,4,46.0,2.0,95,7,0,0,0,1,0,0,-1,1
16,40,67,33,7,49.0,2.0,105,8,3,2,3,3,5,3,1,2
17,42,67,33,7,52.0,1.0,95,8,3,2,3,3,0,0,0,2
18,45,69,34,9,55.0,2.0,105,9,5,3,5,4,2,1,1,3
19,47,69,34,9,58.0,1.0,95,9,5,3,5,4,0,0,0,3
20,50,71,35,11,61.0,2.0,105,10,7,4,7,5,2,1,1,4
21,52,71,35,11,64.0,1.0,95,10,7,4,7,5,0,0,0,4
22,55,71,35,11,67.0,2.0,105,11,7,4,7,5,4,2,0,4
23,57,64,31,4,70.0,2.0,95,11,0,0,0,1,0,0,-1,3
24,59,67,33,7,73.0,2.0,105,12,3,2,3,3,5,3,1,4
25,61,67,33,7,76.0,1.0,95,12,3,2,3,3,0,0,0,4
26,64,69,34,9,79.0,2.0,105,13,5,3,5,4,2,1,1,5
27,66,69,34,9,82.0,1.0,95,13,5,3,5,4,0,0,0,5
28,69,74,37,2,85.0,1.0,105,14,10,6,10,7,2,1,1,6
29,72,72,36,0,88.0,1.0,95,14,8,5,8,6,1,1,-1,5
30,75,67,33,7,91.0,2.0,105,15,3,2,3,3,-2,-1,-1,4
31,77,64,31,4,94.0,3.0,95,15,0,0,0,1,0,0,-1,3
32,78,76,38,4,97.0,2.0,105,16,12,7,0,1,12,7,1,4
33,80,79,40,7,100.0,1.0,95,16,15,9,3,3,1,1,1,5
34,83,78,39,6,103.0,1.0,105,17,14,8,2,2,2,1,-1,4
35,86,78,39,6,106.0,1.0,95,17,14,8,2,2,-1,-1,0,4
36,89,76,38,4,109.0,2.0,105,18,12,7,0,1,2,1,-1,3
37,91,79,40,7,112.0,1.0,95,18,15,9,3,3,1,1,1,4
38,94,78,39,6,115.0,2.0,105,19,14,8,2,2,2,1,-1,3
39,96,71,35,11,118.0,3.0,95,19,7,4,7,5,0,0,-1,2
40,97,76,38,4,121.0,2.0,105,20,12,7,0,1,5,3,1,3
41,99,79,40,7,124.0,1.0,95,20,15,9,3,3,1,1,1,4
42,102,78,39,6,127.0,1.0,105,21,14,8,2,2,2,1,-1,3
43,105,78,39,6,130.0,1.0,95,21,14,8,2,2,-1,-1,0,3
44,108,69,34,9,133.0,2.0,105,22,5,3,5,4,-5,-3,-1,2
45,110,72,36,0,136.0,1.0,95,22,8,5,8,6,1,1,1,3
46,113,71,35,11,139.0,2.0,105,23,7,4,7,5,2,1,-1,2
47,115,64,31,4,142.0,3.0,95,23,0,0,0,1,0,0,-1,1
48,116,76,38,4,145.0,2.0,105,24,12,7,0,1,12,7,1,2
49,118,79,40,7,148.0,1.0,95,24,15,9,3,3,1,1,1,3
50,121,78,39,6,151.0,1.0,105,25,14,8,2,2,2,1,-1,2
51,124,78,39,6,154.0,1.0,95,25,14,8,2,2,-1,-1,0,2
52,127,76,38,4,157.0,2.0,105,26,12,7,0,1,2,1,-1,1
53,129,79,40,7,160.0,1.0,95,26,15,9,3,3,1,1,1,2
54,132,78,39,6,163.0,2.0,105,27,14,8,2,2,2,1,-1,1
55,134,71,35,11,166.0,3.0,95,27,7,4,7,5,0,0,-1,0
56,135,76,38,4,169.0,2.0,105,28,12,7,0,1,5,3,1,1
57,137,79,40,7,172.0,1.0,95,28,15,9,3,3,1,1,1,2
58,140,78,39,6,175.0,1.0,105,29,14,8,2,2,2,1,-1,1
59,143,78,39,6,178.0,1.0,95,29,14,8,2,2,-1,-1,0,1
60,146,69,34,9,181.0,2.0,105,30,5,3,5,4,-5,-3,-1,0
61,148,72,36,0,184.0,1.0,95,30,8,5,8,6,1,1,1,1
62,151,71,35,11,187.0,2.0,105,31,7,4,7,5,2,1,-1,0
63,153,64,31,4,190.0,3.0,95,31,0,0,0,1,0,0,-1,-1
64,154,79,40,7,193.0,1.0,105,32,15,9,3,3,15,9,1,0
65,157,71,35,11,196.0,2.0,95,32,7,4,7,5,-5,-3,-1,-1
66,159,79,40,7,199.0,1.0,105,33,15,9,3,3,0,0,1,0
67,162,72,36,0,202.0,2.0,95,33,8,5,8,6,-4,-2,-1,-1
68,164,79,40,7,205.0,1.0,105,34,15,9,3,3,0,0,1,0
69,167,81,41,9,208.0,2.0,95,34,17,10,5,4,5,3,1,1
70,169,78,39,6,211.0,2.0,105,35,14,8,2,2,-1,-1,-1,0
71,171,74,37,2,214.0,1.0,95,35,10,6,10,7,0,0,-1,-1
72,174,79,40,7,217.0,1.0,105,36,15,9,3,3,1,1,1,0
73,177,81,41,9,220.0,2.0,95,36,17,10,5,4,5,3,1,1
74,179,79,40,7,223.0,1.0,105,37,15,9,3,3,1,1,-1,0
75,182,74,37,2,226.0,2.0,95,37,10,6,10,7,-2,-1,-1,-1
76,184,69,34,9,229.0,2.0,105,38,5,3,5,4,-2,-1,-1,-2
77,186,72,36,0,232.0,1.0,95,38,8,5,8,6,1,1,1,-1
78,189,67,33,7,235.0,2.0,105,39,3,2,3,3,-2,-1,-1,-2
79,191,64,31,4,238.0,3.0,95,39,0,0,0,1,0,0,-1,-3
80,192,79,40,7,241.0,1.0,105,40,15,9,3,3,15,9,1,-2
81,195,71,35,11,244.0,2.0,95,40,7,4,7,5,-5,-3,-1,-3
82,197,79,40,7,247.0,1.0,105,41,15,9,3,3,0,0,1,-2
83,200,72,36,0,250.0,2.0,95,41,8,5,8,6,-4,-2,-1,-3
84,202,79,40,7,253.0,1.0,105,42,15,9,3,3,0,0,1,-2
85,205,81,41,9,256.0,2.0,95,42,17,10,5,4,5,3,1,-1
86,207,78,39,6,259.0,2.0,105,43,14,8,2,2,-1,-1,-1,-2
87,209,74,37,2,262.0,1.0,95,43,10,6,10,7,0,0,-1,-3
88,212,79,40,7,265.0,1.0,105,44,15,9,3,3,1,1,1,-2
89,215,81,41,9,268.0,2.0,95,44,17,10,5,4,5,3,1,-1
90,217,79,40,7,271.0,1.0,105,45,15,9,3,3,1,1,-1,-2
91,220,74,37,2,274.0,2.0,95,45,10,6,10,7,-2,-1,-1,-3
92,222,69,34,9,277.0,2.0,105,46,5,3,5,4,-2,-1,-1,-4
93,224,72,36,0,280.0,1.0,95,46,8,5,8,6,1,1,1,-3
94,227,67,33,7,283.0,2.0,105,47,3,2,3,3,-2,-1,-1,-4
95,229,64,31,4,286.0,2.0,95,47,0,0,0,1,0,0,-1,-5
