,index,midi_note_num,diatonic_note_num,chromatic_pitch_class,onset,duration,velocity,bar_count,relative_chromatic_pitch,relative_diatonic_pitch,chromatic_scale_degree,diatonic_scale_degree,chromatic_interval,diatonic_interval,parsons_code,parsons_cumsum
0,0,74,37,2,0.0,6.0,105,0,7,4,7,5,0,0,0,0
1,3,79,40,7,8.0,4.0,95,0,12,7,0,1,5,3,1,1
2,4,71,35,11,12.0,4.0,95,0,4,2,4,3,-8,-5,-1,0
3,5,76,38,4,16.0,4.0,105,1,9,5,9,6,5,3,1,1
4,6,74,37,2,20.0,3.0,95,1,7,4,7,5,-2,-1,-1,0
5,8,71,35,11,24.0,4.0,95,1,4,2,4,3,-1,-1,-1,-1
6,9,71,35,11,32.0,6.0,105,2,4,2,4,3,0,0,0,-1
7,12,73,36,1,40.0,6.0,95,2,6,3,6,4,-1,-1,1,0
8,15,78,39,6,48.0,1.0,105,3,11,6,11,7,2,1,1,1
9,19,69,34,9,52.0,2.0,95,3,2,1,2,2,-7,-4,-1,0
10,21,74,37,2,56.0,2.0,95,3,7,4,7,5,1,1,1,1
11,24,69,34,9,60.0,1.0,95,3,2,1,2,2,-2,-1,-1,0
12,28,69,34,9,64.0,6.0,105,4,2,1,2,2,-2,-1,0,0
13,31,74,37,2,72.0,6.0,95,4,7,4,7,5,5,3,1,1
14,34,72,36,0,80.0,6.0,105,5,5,3,5,4,-2,-1,-1,0
15,37,71,35,11,88.0,4.0,95,5,4,2,4,3,-1,-1,-1,-1
16,38,74,37,2,96.0,2.0,105,6,7,4,7,5,3,2,1,0
17,40,74,37,2,100.0,2.0,95,6,7,4,7,5,3,2,0,0
18,42,74,37,2,104.0,2.0,95,6,7,4,7,5,3,2,0,0
19,44,74,37,2,108.0,2.0,95,6,7,4,7,5,5,3,0,0
20,46,71,35,11,112.0,2.0,105,7,4,2,4,3,2,1,-1,-1
21,48,71,35,11,116.0,2.0,95,7,4,2,4,3,4,2,0,-1
22,50,71,35,11,120.0,2.0,95,7,4,2,4,3,4,2,0,-1
23,52,71,35,11,124.0,2.0,95,7,4,2,4,3,5,3,0,-1
24,54,79,40,7,128.0,2.0,105,8,12,7,0,1,13,8,1,0
25,56,79,40,7,132.0,2.0,95,8,12,7,0,1,3,2,0,0
26,58,79,40,7,136.0,2.0,95,8,12,7,0,1,3,2,0,0
27,60,79,40,7,140.0,2.0,95,8,12,7,0,1,5,3,0,0
28,62,72,36,0,144.0,1.0,105,9,5,3,5,4,-2,-1,-1,-1
29,66,72,36,0,148.0,1.0,95,9,5,3,5,4,-2,-1,0,-1
30,70,66,32,6,152.0,1.0,95,9,-1,-1,11,7,-1,-1,-1,-2
31,74,66,32,6,156.0,1.0,95,9,-1,-1,11,7,-1,-1,0,-2
32,78,59,28,11,160.0,2.0,105,10,-8,-5,4,3,-1,-1,-1,-3
33,80,62,30,2,164.0,2.0,95,10,-5,-3,7,5,2,1,1,-2
34,82,66,32,6,168.0,2.0,95,10,-1,-1,11,7,2,1,1,-1
35,84,69,34,9,172.0,2.0,95,10,2,1,2,2,2,1,1,0
36,86,72,36,0,176.0,1.0,105,11,5,3,5,4,1,1,1,1
37,90,76,38,4,180.0,1.0,95,11,9,5,9,6,2,1,1,2
38,94,69,34,9,184.0,1.0,95,11,2,1,2,2,-2,-1,-1,1
39,98,72,36,0,188.0,1.0,95,11,5,3,5,4,1,1,1,2
40,102,76,38,4,192.0,1.0,105,12,9,5,9,6,2,1,1,3
41,106,72,36,0,196.0,1.0,95,12,5,3,5,4,-2,-1,-1,2
42,110,69,34,9,200.0,1.0,95,12,2,1,2,2,-2,-1,-1,1
43,114,72,36,0,204.0,1.0,95,12,5,3,5,4,1,1,1,2
44,118,76,38,4,208.0,1.0,105,13,9,5,9,6,2,1,1,3
45,122,72,36,0,212.0,1.0,95,13,5,3,5,4,-2,-1,-1,2
46,126,69,34,9,216.0,1.0,95,13,2,1,2,2,-2,-1,-1,1
47,130,72,36,0,220.0,1.0,95,13,5,3,5,4,1,1,1,2
48,134,71,35,11,224.0,4.0,105,14,4,2,4,3,2,1,-1,1
49,135,67,33,7,256.0,1.0,105,15,0,0,0,1,-4,-2,-1,0
50,139,71,35,11,260.0,2.0,95,15,4,2,4,3,-1,-1,1,1
51,141,67,33,7,264.0,2.0,95,15,0,0,0,1,-2,-1,-1,0
52,144,71,35,11,272.0,2.0,105,16,4,2,4,3,-1,-1,1,1
53,147,72,36,0,276.0,2.0,95,16,5,3,5,4,1,1,1,2
54,149,71,35,11,280.0,1.0,95,16,4,2,4,3,2,1,-1,1
55,153,74,37,2,284.0,2.0,95,16,7,4,7,5,-2,-1,1,2
56,155,71,35,11,288.0,2.0,105,17,4,2,4,3,-1,-1,-1,1
57,158,72,36,0,292.0,2.0,95,17,5,3,5,4,1,1,1,2
58,160,71,35,11,296.0,2.0,95,17,4,2,4,3,2,1,-1,1
59,162,67,33,7,300.0,4.0,95,17,0,0,0,1,-2,-1,-1,0
60,163,74,37,2,336.0,4.0,105,18,7,4,7,5,7,4,1,1
61,164,76,38,4,340.0,1.0,95,18,9,5,9,6,2,1,1,2
62,168,72,36,0,344.0,2.0,95,18,5,3,5,4,1,1,-1,1
63,171,74,37,2,352.0,1.0,105,19,7,4,7,5,-2,-1,1,2
64,175,72,36,0,356.0,1.0,95,19,5,3,5,4,-2,-1,-1,1
65,179,71,35,11,360.0,2.0,95,19,4,2,4,3,-1,-1,-1,0
66,182,72,36,0,368.0,1.0,105,20,5,3,5,4,-2,-1,1,1
67,186,71,35,11,372.0,1.0,95,20,4,2,4,3,-1,-1,-1,0
68,190,69,34,9,376.0,2.0,95,20,2,1,2,2,-2,-1,-1,-1
69,192,66,32,6,380.0,1.0,95,20,-1,-1,11,7,-8,-5,-1,-2
70,196,69,34,9,384.0,2.0,105,21,2,1,2,2,-2,-1,1,-1
71,198,66,32,6,388.0,1.0,95,21,-1,-1,11,7,-8,-5,-1,-2
72,202,69,34,9,392.0,2.0,95,21,2,1,2,2,-2,-1,1,-1
73,204,74,37,2,396.0,2.0,95,21,7,4,7,5,0,0,1,0
74,206,74,37,2,400.0,4.0,105,22,7,4,7,5,0,0,0,0
75,207,74,37,2,432.0,1.0,105,23,7,4,7,5,0,0,0,0
76,211,78,39,6,436.0,2.0,95,23,11,6,11,7,-1,-1,1,1
77,213,74,37,2,440.0,2.0,95,23,7,4,7,5,-2,-1,-1,0
78,216,66,32,6,448.0,2.0,105,24,-1,-1,11,7,-1,-1,-1,-1
79,219,67,33,7,452.0,2.0,95,24,0,0,0,1,1,1,1,0
80,221,66,32,6,456.0,1.0,95,24,-1,-1,11,7,2,1,-1,-1
81,225,69,34,9,460.0,2.0,95,24,2,1,2,2,-2,-1,1,0
82,227,74,37,2,464.0,2.0,105,25,7,4,7,5,1,1,1,1
83,230,79,40,7,468.0,2.0,95,25,12,7,0,1,1,1,1,2
84,232,78,39,6,472.0,2.0,95,25,11,6,11,7,2,1,-1,1
85,234,74,37,2,476.0,4.0,95,25,7,4,7,5,-2,-1,-1,0
86,235,69,34,9,480.0,2.0,105,26,2,1,2,2,-5,-3,-1,-1
87,237,69,34,9,484.0,2.0,95,26,2,1,2,2,3,2,0,-1
88,239,69,34,9,488.0,2.0,95,26,2,1,2,2,3,2,0,-1
89,241,69,34,9,492.0,2.0,95,26,2,1,2,2,5,3,0,-1
90,243,78,39,6,496.0,2.0,105,27,11,6,11,7,14,8,1,0
91,245,78,39,6,500.0,2.0,95,27,11,6,11,7,4,2,0,0
92,247,78,39,6,504.0,2.0,95,27,11,6,11,7,4,2,0,0
93,249,78,39,6,508.0,2.0,95,27,11,6,11,7,5,3,0,0
94,251,74,37,2,512.0,2.0,105,28,7,4,7,5,1,1,-1,-1
95,253,74,37,2,516.0,2.0,95,28,7,4,7,5,3,2,0,-1
96,255,74,37,2,520.0,2.0,95,28,7,4,7,5,3,2,0,-1
97,257,74,37,2,524.0,2.0,95,28,7,4,7,5,5,3,0,-1
98,259,67,33,7,528.0,2.0,105,29,0,0,0,1,-2,-1,-1,-2
99,261,67,33,7,532.0,2.0,95,29,0,0,0,1,-4,-2,0,-2
100,263,73,36,1,536.0,4.0,95,29,6,3,6,4,9,5,1,-1
101,265,78,39,6,544.0,2.0,105,30,11,6,11,7,2,1,1,0
102,267,76,38,4,548.0,2.0,95,30,9,5,9,6,0,0,-1,-1
103,269,79,40,7,552.0,2.0,95,30,12,7,0,1,5,3,1,0
104,271,78,39,6,556.0,2.0,95,30,11,6,11,7,0,0,-1,-1
105,273,78,39,6,560.0,1.0,105,31,11,6,11,7,2,1,0,-1
106,277,76,38,4,564.0,1.0,95,31,9,5,9,6,0,0,-1,-2
107,281,76,38,4,568.0,1.0,95,31,9,5,9,6,2,1,0,-2
108,285,74,37,2,572.0,1.0,95,31,7,4,7,5,0,0,-1,-3
109,289,71,35,11,576.0,1.0,105,32,4,2,4,3,-2,-1,-1,-4
110,293,67,33,7,580.0,1.0,95,32,0,0,0,1,-2,-1,-1,-5
111,297,64,31,4,584.0,4.0,95,32,-3,-2,9,6,-2,-1,-1,-6
112,298,71,35,11,640.0,1.0,105,33,4,2,4,3,7,4,1,-5
113,302,74,37,2,644.0,2.0,95,33,7,4,7,5,-2,-1,1,-4
114,304,71,35,11,648.0,2.0,95,33,4,2,4,3,-1,-1,-1,-5
115,307,71,35,11,656.0,2.0,105,34,4,2,4,3,-1,-1,0,-5
116,310,72,36,0,660.0,2.0,95,34,5,3,5,4,1,1,1,-4
117,312,71,35,11,664.0,2.0,95,34,4,2,4,3,2,1,-1,-5
118,314,67,33,7,668.0,4.0,95,34,0,0,0,1,-2,-1,-1,-6
119,315,71,35,11,704.0,2.0,105,35,4,2,4,3,4,2,1,-5
120,317,69,34,9,708.0,2.0,95,35,2,1,2,2,0,0,-1,-6
121,319,72,36,0,712.0,2.0,95,35,5,3,5,4,5,3,1,-5
122,321,71,35,11,716.0,2.0,95,35,4,2,4,3,0,0,-1,-6
123,323,71,35,11,720.0,1.0,105,36,4,2,4,3,2,1,0,-6
124,327,69,34,9,724.0,1.0,95,36,2,1,2,2,0,0,-1,-7
125,331,69,34,9,728.0,1.0,95,36,2,1,2,2,2,1,0,-7
126,335,67,33,7,732.0,1.0,95,36,0,0,0,1,0,0,-1,-8
127,339,67,33,7,736.0,1.0,105,37,0,0,0,1,1,1,0,-8
128,343,71,35,11,740.0,2.0,95,37,4,2,4,3,-1,-1,1,-7
129,345,67,33,7,744.0,2.0,95,37,0,0,0,1,-2,-1,-1,-8
130,348,76,38,4,752.0,2.0,105,38,9,5,9,6,-2,-1,1,-7
131,351,78,39,6,756.0,2.0,95,38,11,6,11,7,2,1,1,-6
132,353,76,38,4,760.0,2.0,95,38,9,5,9,6,0,0,-1,-7
133,355,67,33,7,764.0,2.0,95,38,0,0,0,1,-4,-2,-1,-8
134,357,76,38,4,768.0,4.0,105,39,9,5,9,6,5,3,1,-7
135,358,71,35,11,800.0,4.0,105,40,4,2,4,3,-5,-3,-1,-8
136,359,64,31,4,804.0,4.0,95,40,-3,-2,9,6,-7,-4,-1,-9
137,360,72,36,0,808.0,4.0,95,40,5,3,5,4,8,5,1,-8
138,361,69,34,9,812.0,6.0,95,40,2,1,2,2,-3,-2,-1,-9
139,364,74,37,2,820.0,2.0,95,40,7,4,7,5,2,1,1,-8
140,366,71,35,11,824.0,4.0,95,40,4,2,4,3,2,1,-1,-9
141,367,67,33,7,828.0,6.0,95,40,0,0,0,1,-4,-2,-1,-10
142,370,72,36,0,836.0,2.0,95,40,5,3,5,4,1,1,1,-9
143,372,69,34,9,840.0,4.0,95,40,2,1,2,2,2,1,-1,-10
144,373,66,32,6,844.0,6.0,95,40,-1,-1,11,7,-3,-2,-1,-11
145,376,71,35,11,852.0,2.0,95,40,4,2,4,3,2,1,1,-10
146,378,67,33,7,856.0,2.0,95,40,0,0,0,1,1,1,-1,-11
147,382,69,34,9,864.0,2.0,105,41,2,1,2,2,2,1,1,-10
148,386,71,35,11,872.0,2.0,95,41,4,2,4,3,2,1,1,-9
149,390,72,36,0,880.0,2.0,105,42,5,3,5,4,1,1,1,-8
150,392,68,33,8,884.0,2.0,95,42,1,0,1,1,-1,-1,-1,-9
151,394,76,38,4,888.0,8.0,95,42,9,5,9,6,7,4,1,-8
152,395,76,38,4,896.0,2.0,105,43,9,5,9,6,0,0,0,-8
153,397,67,33,7,900.0,2.0,95,43,0,0,0,1,-4,-2,-1,-9
154,399,76,38,4,904.0,2.0,95,43,9,5,9,6,5,3,1,-8
155,402,71,35,11,908.0,2.0,95,43,4,2,4,3,-1,-1,-1,-9
156,404,67,33,7,912.0,4.0,105,44,0,0,0,1,-2,-1,-1,-10
157,405,66,32,6,916.0,4.0,95,44,-1,-1,11,7,-1,-1,-1,-11
158,406,64,31,4,920.0,4.0,95,44,-3,-2,9,6,-2,-1,-1,-12
159,407,79,40,7,928.0,2.0,105,45,12,7,0,1,15,9,1,-11
160,409,79,40,7,932.0,2.0,95,45,12,7,0,1,3,2,0,-11
161,411,79,40,7,936.0,2.0,95,45,12,7,0,1,3,2,0,-11
162,413,79,40,7,940.0,2.0,95,45,12,7,0,1,5,3,0,-11
163,415,76,38,4,944.0,2.0,105,46,9,5,9,6,2,1,-1,-12
164,417,76,38,4,948.0,2.0,95,46,9,5,9,6,4,2,0,-12
165,419,76,38,4,952.0,2.0,95,46,9,5,9,6,4,2,0,-12
166,421,76,38,4,956.0,2.0,95,46,9,5,9,6,5,3,0,-12
167,423,72,36,0,960.0,2.0,105,47,5,3,5,4,1,1,-1,-13
168,425,72,36,0,964.0,2.0,95,47,5,3,5,4,3,2,0,-13
169,427,72,36,0,968.0,2.0,95,47,5,3,5,4,3,2,0,-13
170,429,72,36,0,972.0,2.0,95,47,5,3,5,4,5,3,0,-13
171,431,69,34,9,976.0,4.0,105,48,2,1,2,2,2,1,-1,-14
172,432,71,35,11,980.0,4.0,95,48,4,2,4,3,2,1,1,-13
173,433,72,36,0,984.0,4.0,95,48,5,3,5,4,1,1,1,-12
174,434,64,31,4,992.0,1.0,105,49,-3,-2,9,6,-8,-5,-1,-13
175,438,67,33,7,996.0,2.0,95,49,0,0,0,1,-2,-1,1,-12
176,440,64,31,4,1000.0,2.0,95,49,-3,-2,9,6,-1,-1,-1,-13
177,443,72,36,0,1008.0,2.0,105,50,5,3,5,4,-2,-1,1,-12
178,446,74,37,2,1012.0,2.0,95,50,7,4,7,5,2,1,1,-11
179,448,72,36,0,1016.0,2.0,95,50,5,3,5,4,1,1,-1,-12
180,451,76,38,4,1024.0,2.0,105,51,9,5,9,6,-1,-1,1,-11
181,454,77,39,5,1028.0,2.0,95,51,10,6,10,7,1,1,1,-10
182,456,76,38,4,1032.0,2.0,95,51,9,5,9,6,2,1,-1,-11
183,458,72,36,0,1036.0,4.0,95,51,5,3,5,4,-2,-1,-1,-12
184,459,67,33,7,1040.0,2.0,105,52,0,0,0,1,-5,-3,-1,-13
185,461,67,33,7,1044.0,2.0,95,52,0,0,0,1,3,2,0,-13
186,463,69,34,9,1048.0,4.0,95,52,2,1,2,2,5,3,1,-12
187,464,69,34,9,1056.0,2.0,105,53,2,1,2,2,0,0,0,-12
188,466,69,34,9,1060.0,2.0,95,53,2,1,2,2,3,2,0,-12
189,468,71,35,11,1064.0,4.0,95,53,4,2,4,3,5,3,1,-11
190,469,71,35,11,1072.0,2.0,105,54,4,2,4,3,0,0,0,-11
191,471,71,35,11,1076.0,2.0,95,54,4,2,4,3,4,2,0,-11
192,473,72,36,0,1080.0,4.0,95,54,5,3,5,4,5,3,1,-10
193,474,72,36,0,1088.0,2.0,105,55,5,3,5,4,0,0,0,-10
194,476,72,36,0,1092.0,2.0,95,55,5,3,5,4,3,2,0,-10
195,478,74,37,2,1096.0,4.0,95,55,7,4,7,5,5,3,1,-9
196,479,71,35,11,1104.0,1.0,105,56,4,2,4,3,-3,-2,-1,-10
197,483,74,37,2,1108.0,2.0,95,56,7,4,7,5,-2,-1,1,-9
198,485,71,35,11,1112.0,2.0,95,56,4,2,4,3,-1,-1,-1,-10
199,488,71,35,11,1120.0,2.0,105,57,4,2,4,3,-1,-1,0,-10
200,491,72,36,0,1124.0,2.0,95,57,5,3,5,4,1,1,1,-9
201,493,71,35,11,1128.0,2.0,95,57,4,2,4,3,2,1,-1,-10
202,495,67,33,7,1132.0,2.0,95,57,0,0,0,1,-2,-1,-1,-11
203,497,71,35,11,1136.0,2.0,105,58,4,2,4,3,5,3,1,-10
204,500,72,36,0,1144.0,2.0,95,58,5,3,5,4,5,3,1,-9
205,503,71,35,11,1152.0,1.0,105,59,4,2,4,3,2,1,-1,-10
206,507,74,37,2,1156.0,2.0,95,59,7,4,7,5,-2,-1,1,-9
207,509,66,32,6,1160.0,2.0,95,59,-1,-1,11,7,-1,-1,-1,-10
208,512,71,35,11,1168.0,1.0,105,60,4,2,4,3,2,1,1,-9
209,516,66,32,6,1176.0,1.0,95,60,-1,-1,11,7,-1,-1,-1,-10
210,520,72,36,0,1184.0,1.0,105,61,5,3,5,4,1,1,1,-9
211,524,68,33,8,1192.0,1.0,95,61,1,0,1,1,-1,-1,-1,-10
212,528,69,34,9,1200.0,2.0,105,62,2,1,2,2,5,3,1,-9
213,531,74,37,2,1204.0,2.0,95,62,7,4,7,5,2,1,1,-8
214,533,72,36,0,1208.0,2.0,95,62,5,3,5,4,1,1,-1,-9
215,535,69,34,9,1212.0,6.0,95,62,2,1,2,2,1,1,-1,-10
216,538,74,37,2,1220.0,2.0,95,62,7,4,7,5,2,1,1,-9
217,540,71,35,11,1224.0,2.0,95,62,4,2,4,3,2,1,-1,-10
218,542,67,33,7,1228.0,6.0,95,62,0,0,0,1,1,1,-1,-11
219,545,65,32,5,1236.0,2.0,95,62,-2,-1,10,7,1,1,-1,-12
220,548,64,31,4,1240.0,2.0,95,62,-3,-2,9,6,2,1,-1,-13
221,551,69,34,9,1244.0,6.0,95,62,2,1,2,2,2,1,1,-12
222,554,67,33,7,1252.0,2.0,95,62,0,0,0,1,1,1,-1,-13
223,557,66,32,6,1256.0,4.0,95,62,-1,-1,11,7,2,1,-1,-14
224,558,74,37,2,1264.0,2.0,105,63,7,4,7,5,8,5,1,-13
225,560,74,37,2,1268.0,2.0,95,63,7,4,7,5,3,2,0,-13
226,562,74,37,2,1272.0,2.0,95,63,7,4,7,5,3,2,0,-13
227,564,74,37,2,1276.0,2.0,95,63,7,4,7,5,5,3,0,-13
228,566,71,35,11,1280.0,2.0,105,64,4,2,4,3,2,1,-1,-14
229,568,71,35,11,1284.0,2.0,95,64,4,2,4,3,4,2,0,-14
230,570,71,35,11,1288.0,2.0,95,64,4,2,4,3,4,2,0,-14
231,572,71,35,11,1292.0,2.0,95,64,4,2,4,3,5,3,0,-14
232,574,79,40,7,1296.0,2.0,105,65,12,7,0,1,13,8,1,-13
233,576,79,40,7,1300.0,2.0,95,65,12,7,0,1,3,2,0,-13
234,578,79,40,7,1304.0,2.0,95,65,12,7,0,1,3,2,0,-13
235,580,79,40,7,1308.0,2.0,95,65,12,7,0,1,5,3,0,-13
236,582,72,36,0,1312.0,1.0,105,66,5,3,5,4,-2,-1,-1,-14
237,586,72,36,0,1316.0,1.0,95,66,5,3,5,4,-2,-1,0,-14
238,590,66,32,6,1320.0,1.0,95,66,-1,-1,11,7,-1,-1,-1,-15
239,594,66,32,6,1324.0,1.0,95,66,-1,-1,11,7,-1,-1,0,-15
240,598,59,28,11,1328.0,2.0,105,67,-8,-5,4,3,-1,-1,-1,-16
241,600,62,30,2,1332.0,2.0,95,67,-5,-3,7,5,2,1,1,-15
242,602,66,32,6,1336.0,2.0,95,67,-1,-1,11,7,2,1,1,-14
243,604,69,34,9,1340.0,2.0,95,67,2,1,2,2,2,1,1,-13
244,606,72,36,0,1344.0,1.0,105,68,5,3,5,4,1,1,1,-12
245,610,76,38,4,1348.0,1.0,95,68,9,5,9,6,2,1,1,-11
246,614,69,34,9,1352.0,1.0,95,68,2,1,2,2,-2,-1,-1,-12
247,618,72,36,0,1356.0,1.0,95,68,5,3,5,4,1,1,1,-11
248,622,76,38,4,1360.0,1.0,105,69,9,5,9,6,2,1,1,-10
249,626,72,36,0,1364.0,1.0,95,69,5,3,5,4,-2,-1,-1,-11
250,630,69,34,9,1368.0,1.0,95,69,2,1,2,2,-2,-1,-1,-12
251,634,72,36,0,1372.0,1.0,95,69,5,3,5,4,1,1,1,-11
252,638,76,38,4,1376.0,1.0,105,70,9,5,9,6,2,1,1,-10
253,642,72,36,0,1380.0,1.0,95,70,5,3,5,4,-2,-1,-1,-11
254,646,69,34,9,1384.0,1.0,95,70,2,1,2,2,-2,-1,-1,-12
255,650,72,36,0,1388.0,1.0,95,70,5,3,5,4,1,1,1,-11
256,654,71,35,11,1392.0,1.0,105,71,4,2,4,3,2,1,-1,-12
257,658,74,37,2,1396.0,1.0,95,71,7,4,7,5,-2,-1,1,-11
258,662,78,39,6,1400.0,2.0,95,71,11,6,11,7,-1,-1,1,-10
259,665,79,40,7,1404.0,2.0,95,71,12,7,0,1,5,3,1,-9
260,667,71,35,11,1408.0,4.0,105,72,4,2,4,3,-1,-1,-1,-10
261,668,69,34,9,1412.0,3.0,95,72,2,1,2,2,-2,-1,-1,-11
262,670,67,33,7,1416.0,4.0,95,72,0,0,0,1,0,0,-1,-12
263,671,71,35,11,0.0,6.0,105,73,4,2,4,3,4,2,1,-11
264,674,67,33,7,8.0,6.0,95,73,0,0,0,1,-4,-2,-1,-12
265,677,69,34,9,16.0,3.0,105,74,2,1,2,2,-2,-1,1,-11
266,679,66,32,6,20.0,2.0,95,74,-1,-1,11,7,-1,-1,-1,-12
267,681,67,33,7,24.0,4.0,95,74,0,0,0,1,1,1,1,-11
268,682,67,33,7,32.0,6.0,105,75,0,0,0,1,0,0,0,-11
269,685,69,34,9,40.0,6.0,95,75,2,1,2,2,-2,-1,1,-10
270,688,69,34,9,48.0,1.0,105,76,2,1,2,2,-4,-2,0,-10
271,692,64,31,4,52.0,2.0,95,76,-3,-2,9,6,-3,-2,-1,-11
272,694,66,32,6,56.0,2.0,95,76,-1,-1,11,7,-3,-2,1,-10
273,697,66,32,6,60.0,1.0,95,76,-1,-1,11,7,-1,-1,0,-10
274,701,66,32,6,64.0,6.0,105,77,-1,-1,11,7,-1,-1,0,-10
275,704,67,33,7,72.0,6.0,95,77,0,0,0,1,1,1,1,-9
276,707,69,34,9,80.0,6.0,105,78,2,1,2,2,-10,-6,1,-8
277,710,62,30,2,88.0,4.0,95,78,-5,-3,7,5,-7,-4,-1,-9
278,711,71,35,11,96.0,2.0,105,79,4,2,4,3,9,5,1,-8
279,713,71,35,11,100.0,2.0,95,79,4,2,4,3,4,2,0,-8
280,715,69,34,9,104.0,2.0,95,79,2,1,2,2,2,1,-1,-9
281,717,69,34,9,108.0,2.0,95,79,2,1,2,2,3,2,0,-9
282,719,67,33,7,112.0,2.0,105,80,0,0,0,1,1,1,-1,-10
283,721,67,33,7,116.0,2.0,95,80,0,0,0,1,3,2,0,-10
284,723,66,32,6,120.0,2.0,95,80,-1,-1,11,7,2,1,-1,-11
285,725,66,32,6,124.0,2.0,95,80,-1,-1,11,7,4,2,0,-11
286,727,76,38,4,128.0,2.0,105,81,9,5,9,6,14,8,1,-10
287,729,76,38,4,132.0,2.0,95,81,9,5,9,6,4,2,0,-10
288,731,74,37,2,136.0,2.0,95,81,7,4,7,5,2,1,-1,-11
289,733,74,37,2,140.0,2.0,95,81,7,4,7,5,3,2,0,-11
290,735,64,31,4,144.0,2.0,105,82,-3,-2,9,6,-7,-4,-1,-12
291,738,76,38,4,148.0,1.0,95,82,9,5,9,6,2,1,1,-11
292,742,69,34,9,152.0,1.0,95,82,2,1,2,2,-2,-1,-1,-12
293,746,69,34,9,156.0,1.0,95,82,2,1,2,2,2,1,0,-12
294,750,62,30,2,160.0,2.0,105,83,-5,-3,7,5,-2,-1,-1,-13
295,752,59,28,11,164.0,2.0,95,83,-8,-5,4,3,-1,-1,-1,-14
296,754,62,30,2,168.0,2.0,95,83,-5,-3,7,5,-2,-1,1,-13
297,756,62,30,2,172.0,2.0,95,83,-5,-3,7,5,-5,-3,0,-13
298,758,69,34,9,176.0,1.0,105,84,2,1,2,2,2,1,1,-12
299,762,72,36,0,180.0,1.0,95,84,5,3,5,4,1,1,1,-11
300,766,66,32,6,184.0,1.0,95,84,-1,-1,11,7,-1,-1,-1,-12
301,770,69,34,9,188.0,1.0,95,84,2,1,2,2,2,1,1,-11
302,774,72,36,0,192.0,1.0,105,85,5,3,5,4,1,1,1,-10
303,778,69,34,9,196.0,1.0,95,85,2,1,2,2,-2,-1,-1,-11
304,782,66,32,6,200.0,1.0,95,85,-1,-1,11,7,-1,-1,-1,-12
305,786,69,34,9,204.0,1.0,95,85,2,1,2,2,2,1,1,-11
306,790,72,36,0,208.0,1.0,105,86,5,3,5,4,1,1,1,-10
307,794,69,34,9,212.0,1.0,95,86,2,1,2,2,-2,-1,-1,-11
308,798,66,32,6,216.0,1.0,95,86,-1,-1,11,7,-1,-1,-1,-12
309,802,69,34,9,220.0,1.0,95,86,2,1,2,2,2,1,1,-11
310,806,67,33,7,224.0,4.0,105,87,0,0,0,1,1,1,-1,-12
311,807,67,33,7,264.0,1.0,95,87,0,0,0,1,0,0,0,-12
312,811,71,35,11,268.0,2.0,95,87,4,2,4,3,-1,-1,1,-11
313,813,67,33,7,272.0,2.0,105,88,0,0,0,1,-2,-1,-1,-12
314,816,69,34,9,276.0,2.0,95,88,2,1,2,2,2,1,1,-11
315,818,67,33,7,280.0,1.0,95,88,0,0,0,1,1,1,-1,-12
316,822,71,35,11,284.0,2.0,95,88,4,2,4,3,-1,-1,1,-11
317,824,67,33,7,288.0,2.0,105,89,0,0,0,1,-2,-1,-1,-12
318,827,69,34,9,292.0,2.0,95,89,2,1,2,2,2,1,1,-11
319,829,67,33,7,296.0,2.0,95,89,0,0,0,1,1,1,-1,-12
320,831,59,28,11,300.0,4.0,95,89,-8,-5,4,3,-3,-2,-1,-13
321,832,71,35,11,336.0,4.0,105,90,4,2,4,3,12,7,1,-12
322,833,72,36,0,340.0,1.0,95,90,5,3,5,4,1,1,1,-11
323,837,69,34,9,344.0,2.0,95,90,2,1,2,2,2,1,-1,-12
324,840,71,35,11,352.0,1.0,105,91,4,2,4,3,-1,-1,1,-11
325,844,69,34,9,356.0,1.0,95,91,2,1,2,2,-2,-1,-1,-12
326,848,67,33,7,360.0,2.0,95,91,0,0,0,1,-2,-1,-1,-13
327,851,69,34,9,368.0,1.0,105,92,2,1,2,2,-2,-1,1,-12
328,855,67,33,7,372.0,1.0,95,92,0,0,0,1,-2,-1,-1,-13
329,859,66,32,6,376.0,2.0,95,92,-1,-1,11,7,-1,-1,-1,-14
330,861,62,30,2,380.0,1.0,95,92,-5,-3,7,5,-7,-4,-1,-15
331,865,66,32,6,384.0,2.0,105,93,-1,-1,11,7,-1,-1,1,-14
332,867,62,30,2,388.0,1.0,95,93,-5,-3,7,5,-7,-4,-1,-15
333,871,66,32,6,392.0,2.0,95,93,-1,-1,11,7,-1,-1,1,-14
334,873,66,32,6,396.0,2.0,95,93,-1,-1,11,7,0,0,0,-14
335,875,66,32,6,400.0,4.0,105,94,-1,-1,11,7,0,0,0,-14
336,876,66,32,6,432.0,1.0,105,95,-1,-1,11,7,0,0,0,-14
337,880,69,34,9,436.0,2.0,95,95,2,1,2,2,-2,-1,1,-13
338,882,66,32,6,440.0,2.0,95,95,-1,-1,11,7,-1,-1,-1,-14
339,885,62,30,2,448.0,2.0,105,96,-5,-3,7,5,-2,-1,-1,-15
340,888,64,31,4,452.0,2.0,95,96,-3,-2,9,6,2,1,1,-14
341,890,62,30,2,456.0,1.0,95,96,-5,-3,7,5,1,1,-1,-15
342,894,66,32,6,460.0,2.0,95,96,-1,-1,11,7,-1,-1,1,-14
343,896,66,32,6,464.0,2.0,105,97,-1,-1,11,7,2,1,0,-14
344,899,71,35,11,468.0,2.0,95,97,4,2,4,3,2,1,1,-13
345,901,74,37,2,472.0,2.0,95,97,7,4,7,5,1,1,1,-12
346,903,66,32,6,476.0,4.0,95,97,-1,-1,11,7,-3,-2,-1,-13
347,904,66,32,6,480.0,2.0,105,98,-1,-1,11,7,0,0,0,-13
348,906,66,32,6,484.0,2.0,95,98,-1,-1,11,7,4,2,0,-13
349,908,64,31,4,488.0,2.0,95,98,-3,-2,9,6,2,1,-1,-14
350,910,64,31,4,492.0,2.0,95,98,-3,-2,9,6,3,2,0,-14
351,912,74,37,2,496.0,2.0,105,99,7,4,7,5,13,8,1,-13
352,914,74,37,2,500.0,2.0,95,99,7,4,7,5,3,2,0,-13
353,916,73,36,1,504.0,2.0,95,99,6,3,6,4,2,1,-1,-14
354,918,73,36,1,508.0,2.0,95,99,6,3,6,4,4,2,0,-14
355,920,71,35,11,512.0,2.0,105,100,4,2,4,3,2,1,-1,-15
356,922,71,35,11,516.0,2.0,95,100,4,2,4,3,4,2,0,-15
357,924,69,34,9,520.0,2.0,95,100,2,1,2,2,2,1,-1,-16
358,926,69,34,9,524.0,2.0,95,100,2,1,2,2,3,2,0,-16
359,928,71,35,11,528.0,2.0,105,101,4,2,4,3,5,3,1,-15
360,930,64,31,4,532.0,2.0,95,101,-3,-2,9,6,-3,-2,-1,-16
361,932,69,34,9,536.0,4.0,95,101,2,1,2,2,-2,-1,1,-15
362,934,74,37,2,544.0,2.0,105,102,7,4,7,5,1,1,1,-14
363,936,73,36,1,548.0,2.0,95,102,6,3,6,4,0,0,-1,-15
364,938,76,38,4,552.0,2.0,95,102,9,5,9,6,5,3,1,-14
365,940,74,37,2,556.0,2.0,95,102,7,4,7,5,0,0,-1,-15
366,942,74,37,2,560.0,1.0,105,103,7,4,7,5,1,1,0,-15
367,946,73,36,1,564.0,1.0,95,103,6,3,6,4,0,0,-1,-16
368,950,73,36,1,568.0,1.0,95,103,6,3,6,4,2,1,0,-16
369,954,71,35,11,572.0,1.0,95,103,4,2,4,3,0,0,-1,-17
370,958,67,33,7,576.0,1.0,105,104,0,0,0,1,-2,-1,-1,-18
371,962,64,31,4,580.0,1.0,95,104,-3,-2,9,6,-2,-1,-1,-19
372,966,61,29,1,584.0,4.0,95,104,-6,-4,6,4,-1,-1,-1,-20
373,967,67,33,7,640.0,1.0,105,105,0,0,0,1,6,4,1,-19
374,971,71,35,11,644.0,2.0,95,105,4,2,4,3,-1,-1,1,-18
375,973,67,33,7,648.0,2.0,95,105,0,0,0,1,-2,-1,-1,-19
376,976,67,33,7,656.0,2.0,105,106,0,0,0,1,-2,-1,0,-19
377,979,69,34,9,660.0,2.0,95,106,2,1,2,2,2,1,1,-18
378,981,67,33,7,664.0,2.0,95,106,0,0,0,1,1,1,-1,-19
379,983,59,28,11,668.0,4.0,95,106,-8,-5,4,3,-3,-2,-1,-20
380,984,67,33,7,704.0,2.0,105,107,0,0,0,1,8,5,1,-19
381,986,66,32,6,708.0,2.0,95,107,-1,-1,11,7,0,0,-1,-20
382,988,69,34,9,712.0,2.0,95,107,2,1,2,2,5,3,1,-19
383,990,67,33,7,716.0,2.0,95,107,0,0,0,1,0,0,-1,-20
