,index,midi_note_num,diatonic_note_num,chromatic_pitch_class,onset,duration,velocity,bar_count,relative_chromatic_pitch,relative_diatonic_pitch,chromatic_scale_degree,diatonic_scale_degree,chromatic_interval,diatonic_interval,parsons_code,parsons_cumsum
0,1,62,30,2,1.0,2.0,105,0,0,0,0,1,0,0,0,0
1,3,66,32,6,4.0,1.0,95,0,4,2,4,3,4,2,1,1
2,6,62,30,2,7.0,3.0,105,1,0,0,0,1,-4,-2,-1,0
3,7,62,30,2,10.0,2.0,95,1,0,0,0,1,0,0,0,0
4,9,62,30,2,13.0,2.0,105,2,0,0,0,1,-7,-4,0,0
5,11,66,32,6,16.0,1.0,95,2,4,2,4,3,4,2,1,1
6,15,69,34,9,19.0,3.0,105,3,7,4,7,5,3,2,1,2
7,16,69,34,9,22.0,1.0,95,3,7,4,7,5,0,0,0,2
8,19,74,37,2,25.0,1.0,105,4,12,7,0,1,1,1,1,3
9,22,72,36,0,28.0,1.0,95,4,10,6,10,7,-2,-1,-1,2
10,25,71,35,11,31.0,1.0,105,5,9,5,9,6,-1,-1,-1,1
11,28,69,34,9,34.0,2.0,95,5,7,4,7,5,-2,-1,-1,0
12,30,69,34,9,37.0,1.0,105,6,7,4,7,5,-2,-1,0,0
13,34,74,37,2,40.0,1.0,95,6,12,7,0,1,5,3,1,1
14,37,64,31,4,43.0,1.0,105,7,2,1,2,2,-2,-1,-1,0
15,40,64,31,4,46.0,2.0,95,7,2,1,2,2,0,0,0,0
16,42,62,30,2,49.0,2.0,105,8,0,0,0,1,-4,-2,-1,-1
17,44,66,32,6,52.0,1.0,95,8,4,2,4,3,4,2,1,0
18,47,62,30,2,55.0,3.0,105,9,0,0,0,1,-4,-2,-1,-1
19,48,62,30,2,58.0,2.0,95,9,0,0,0,1,0,0,0,-1
20,50,62,30,2,61.0,2.0,105,10,0,0,0,1,-7,-4,0,-1
21,52,66,32,6,64.0,1.0,95,10,4,2,4,3,4,2,1,0
22,56,69,34,9,67.0,3.0,105,11,7,4,7,5,3,2,1,1
23,57,69,34,9,70.0,1.0,95,11,7,4,7,5,0,0,0,1
24,60,74,37,2,73.0,1.0,105,12,12,7,0,1,1,1,1,2
25,63,72,36,0,76.0,1.0,95,12,10,6,10,7,-2,-1,-1,1
26,66,71,35,11,79.0,1.0,105,13,9,5,9,6,-1,-1,-1,0
27,69,69,34,9,82.0,2.0,95,13,7,4,7,5,-2,-1,-1,-1
28,71,66,32,6,85.0,1.0,105,14,4,2,4,3,-1,-1,-1,-2
29,74,69,34,9,88.0,1.0,95,14,7,4,7,5,7,4,1,-1
30,77,62,30,2,91.0,3.0,105,15,0,0,0,1,-2,-1,-1,-2
31,78,62,30,2,94.0,2.0,95,15,0,0,0,1,0,0,0,-2
32,80,78,39,6,97.0,1.0,105,16,16,9,4,3,-1,-1,1,-1
33,83,74,37,2,100.0,1.0,95,16,12,7,0,1,-7,-4,-1,-2
34,86,74,37,2,103.0,1.0,105,17,12,7,0,1,0,0,0,-2
35,89,81,41,9,106.0,1.0,95,17,19,11,7,5,0,0,1,-1
36,92,76,38,4,109.0,1.0,105,18,14,8,2,2,2,1,-1,-2
37,95,72,36,0,112.0,1.0,95,18,10,6,10,7,-7,-4,-1,-3
38,98,76,38,4,115.0,1.0,105,19,14,8,2,2,4,2,1,-2
39,101,72,36,0,118.0,2.0,95,19,10,6,10,7,-7,-4,-1,-3
40,103,78,39,6,121.0,1.0,105,20,16,9,4,3,-1,-1,1,-2
41,106,74,37,2,124.0,2.0,95,20,12,7,0,1,-7,-4,-1,-3
42,108,78,39,6,127.0,1.0,105,21,16,9,4,3,-1,-1,1,-2
43,111,81,41,9,130.0,2.0,95,21,19,11,7,5,0,0,1,-1
44,113,76,38,4,133.0,1.0,105,22,14,8,2,2,2,1,-1,-2
45,116,69,34,9,136.0,1.0,95,22,7,4,7,5,-10,-6,-1,-3
46,119,74,37,2,139.0,3.0,105,23,12,7,0,1,1,1,1,-2
47,120,74,37,2,142.0,2.0,95,23,12,7,0,1,0,0,0,-2
48,122,62,30,2,145.0,2.0,105,24,0,0,0,1,-4,-2,-1,-3
49,124,66,32,6,148.0,1.0,95,24,4,2,4,3,4,2,1,-2
50,127,62,30,2,151.0,3.0,105,25,0,0,0,1,-4,-2,-1,-3
51,128,62,30,2,154.0,2.0,95,25,0,0,0,1,0,0,0,-3
52,130,62,30,2,157.0,2.0,105,26,0,0,0,1,-7,-4,0,-3
53,132,66,32,6,160.0,1.0,95,26,4,2,4,3,4,2,1,-2
54,136,69,34,9,163.0,3.0,105,27,7,4,7,5,3,2,1,-1
55,137,69,34,9,166.0,1.0,95,27,7,4,7,5,0,0,0,-1
56,140,74,37,2,169.0,1.0,105,28,12,7,0,1,1,1,1,0
57,143,72,36,0,172.0,1.0,95,28,10,6,10,7,-2,-1,-1,-1
58,146,79,40,7,175.0,1.0,105,29,17,10,5,4,7,4,1,0
59,147,78,39,6,176.0,1.0,105,30,16,9,4,3,-1,-1,-1,-1
60,150,74,37,2,179.0,1.0,95,30,12,7,0,1,-7,-4,-1,-2
61,153,74,37,2,182.0,1.0,105,31,12,7,0,1,0,0,0,-2
62,156,81,41,9,185.0,1.0,95,31,19,11,7,5,0,0,1,-1
63,159,76,38,4,188.0,1.0,105,32,14,8,2,2,2,1,-1,-2
64,162,72,36,0,191.0,1.0,95,32,10,6,10,7,-7,-4,-1,-3
65,165,76,38,4,194.0,1.0,105,33,14,8,2,2,4,2,1,-2
66,168,72,36,0,197.0,2.0,95,33,10,6,10,7,-7,-4,-1,-3
67,170,78,39,6,200.0,1.0,105,34,16,9,4,3,-1,-1,1,-2
68,173,74,37,2,203.0,2.0,95,34,12,7,0,1,-7,-4,-1,-3
69,175,78,39,6,206.0,1.0,105,35,16,9,4,3,-1,-1,1,-2
70,178,81,41,9,209.0,2.0,95,35,19,11,7,5,0,0,1,-1
71,180,76,38,4,212.0,1.0,105,36,14,8,2,2,2,1,-1,-2
72,183,69,34,9,215.0,1.0,95,36,7,4,7,5,-10,-6,-1,-3
73,186,74,37,2,218.0,3.0,105,37,12,7,0,1,1,1,1,-2
74,187,74,37,2,221.0,2.0,95,37,12,7,0,1,0,0,0,-2
75,189,79,40,7,224.0,1.0,95,37,17,10,5,4,1,1,1,-1
76,192,71,35,11,227.0,1.0,95,37,9,5,9,6,2,1,-1,-2
77,194,74,37,2,229.0,1.0,105,38,12,7,0,1,1,1,1,-1
78,197,69,34,9,232.0,2.0,95,38,7,4,7,5,-5,-3,-1,-2
79,199,66,32,6,235.0,1.0,105,39,4,2,4,3,-1,-1,-1,-3
80,202,69,34,9,238.0,1.0,95,39,7,4,7,5,7,4,1,-2
81,205,62,30,2,241.0,3.0,105,40,0,0,0,1,-2,-1,-1,-3
82,206,62,30,2,244.0,2.0,95,40,0,0,0,1,0,0,0,-3
