,index,midi_note_num,diatonic_note_num,chromatic_pitch_class,onset,duration,velocity,bar_count,relative_chromatic_pitch,relative_diatonic_pitch,chromatic_scale_degree,diatonic_scale_degree,chromatic_interval,diatonic_interval,parsons_code,parsons_cumsum
0,0,59,28,11,0.0,1.0,105,0,-5,-3,7,5,0,0,0,0
1,2,67,33,7,3.0,1.0,95,0,3,2,3,3,3,2,1,1
2,5,71,35,11,6.0,1.0,95,0,7,4,7,5,4,2,1,2
3,8,57,27,9,9.0,1.0,105,1,-7,-4,5,4,-10,-6,-1,1
4,10,67,33,7,12.0,1.0,95,1,3,2,3,3,1,1,1,2
5,13,69,34,9,15.0,1.0,95,1,5,3,5,4,2,1,1,3
6,16,64,31,4,18.0,5.0,105,2,0,0,0,1,-2,-1,-1,2
7,18,59,28,11,24.0,1.0,95,2,-5,-3,7,5,-3,-2,-1,1
8,21,64,31,4,27.0,5.0,105,3,0,0,0,1,-2,-1,1,2
9,23,64,31,4,33.0,1.0,95,3,0,0,0,1,2,1,0,2
10,26,59,28,11,36.0,1.0,105,4,-5,-3,7,5,2,1,-1,1
11,28,67,33,7,39.0,1.0,95,4,3,2,3,3,3,2,1,2
12,31,71,35,11,42.0,1.0,95,4,7,4,7,5,4,2,1,3
13,34,57,27,9,45.0,1.0,105,5,-7,-4,5,4,-10,-6,-1,2
14,36,67,33,7,48.0,1.0,95,5,3,2,3,3,1,1,1,3
15,39,69,34,9,51.0,1.0,95,5,5,3,5,4,2,1,1,4
16,42,64,31,4,54.0,5.0,105,6,0,0,0,1,-2,-1,-1,3
17,44,60,29,0,60.0,1.0,95,6,-4,-2,8,6,-2,-1,-1,2
18,47,71,35,11,63.0,1.0,105,7,7,4,7,5,2,1,1,3
19,50,69,34,9,66.0,1.0,95,7,5,3,5,4,2,1,-1,2
20,53,59,28,11,69.0,1.0,105,8,-5,-3,7,5,-8,-5,-1,1
21,55,67,33,7,72.0,1.0,95,8,3,2,3,3,3,2,1,2
22,58,71,35,11,75.0,1.0,95,8,7,4,7,5,4,2,1,3
23,61,57,27,9,78.0,1.0,105,9,-7,-4,5,4,-10,-6,-1,2
24,63,67,33,7,81.0,1.0,95,9,3,2,3,3,1,1,1,3
25,66,69,34,9,84.0,1.0,95,9,5,3,5,4,2,1,1,4
26,69,64,31,4,87.0,5.0,105,10,0,0,0,1,-2,-1,-1,3
27,71,59,28,11,93.0,1.0,95,10,-5,-3,7,5,-3,-2,-1,2
28,74,64,31,4,96.0,5.0,105,11,0,0,0,1,-2,-1,1,3
29,76,64,31,4,102.0,1.0,95,11,0,0,0,1,2,1,0,3
30,79,59,28,11,105.0,1.0,105,12,-5,-3,7,5,2,1,-1,2
31,81,67,33,7,108.0,1.0,95,12,3,2,3,3,3,2,1,3
32,84,71,35,11,111.0,1.0,95,12,7,4,7,5,4,2,1,4
33,87,57,27,9,114.0,1.0,105,13,-7,-4,5,4,-10,-6,-1,3
34,89,67,33,7,117.0,1.0,95,13,3,2,3,3,1,1,1,4
35,92,69,34,9,120.0,1.0,95,13,5,3,5,4,2,1,1,5
36,95,64,31,4,123.0,5.0,105,14,0,0,0,1,-2,-1,-1,4
37,97,60,29,0,129.0,1.0,95,14,-4,-2,8,6,-2,-1,-1,3
38,100,71,35,11,132.0,1.0,105,15,7,4,7,5,2,1,1,4
39,103,69,34,9,135.0,1.0,95,15,5,3,5,4,2,1,-1,3
40,106,69,34,9,138.0,1.0,105,16,5,3,5,4,2,1,0,3
41,109,69,34,9,141.0,1.0,95,16,5,3,5,4,2,1,0,3
42,112,67,33,7,144.0,1.0,95,16,3,2,3,3,1,1,-1,2
43,115,60,29,0,147.0,4.0,105,17,-4,-2,8,6,-14,-8,-1,1
44,118,71,35,11,153.0,1.0,95,17,7,4,7,5,2,1,1,2
45,121,69,34,9,156.0,1.0,105,18,5,3,5,4,2,1,-1,1
46,124,69,34,9,159.0,1.0,95,18,5,3,5,4,2,1,0,1
47,127,76,38,4,162.0,1.0,95,18,12,7,0,1,2,1,1,2
48,130,69,34,9,165.0,4.0,105,19,5,3,5,4,-2,-1,-1,1
49,133,71,35,11,171.0,1.0,95,19,7,4,7,5,-1,-1,1,2
50,136,69,34,9,174.0,1.0,105,20,5,3,5,4,2,1,-1,1
51,139,69,34,9,177.0,1.0,95,20,5,3,5,4,2,1,0,1
52,142,67,33,7,180.0,1.0,95,20,3,2,3,3,1,1,-1,0
53,145,60,29,0,183.0,4.0,105,21,-4,-2,8,6,-14,-8,-1,-1
54,148,71,35,11,189.0,1.0,95,21,7,4,7,5,2,1,1,0
55,151,64,31,4,192.0,3.0,105,22,0,0,0,1,-3,-2,-1,-1
56,152,64,31,4,195.0,2.0,95,22,0,0,0,1,0,0,0,-1
57,154,60,29,0,198.0,1.0,95,22,-4,-2,8,6,-2,-1,-1,-2
58,157,71,35,11,201.0,1.0,105,23,7,4,7,5,2,1,1,-1
59,160,69,34,9,204.0,1.0,95,23,5,3,5,4,2,1,-1,-2
60,163,69,34,9,207.0,1.0,105,24,5,3,5,4,2,1,0,-2
61,166,69,34,9,210.0,1.0,95,24,5,3,5,4,2,1,0,-2
62,169,67,33,7,213.0,1.0,95,24,3,2,3,3,1,1,-1,-3
63,172,60,29,0,216.0,4.0,105,25,-4,-2,8,6,-14,-8,-1,-4
64,175,71,35,11,222.0,1.0,95,25,7,4,7,5,2,1,1,-3
65,178,69,34,9,225.0,1.0,105,26,5,3,5,4,2,1,-1,-4
66,181,69,34,9,228.0,1.0,95,26,5,3,5,4,2,1,0,-4
67,184,76,38,4,231.0,1.0,95,26,12,7,0,1,2,1,1,-3
68,187,69,34,9,234.0,4.0,105,27,5,3,5,4,-2,-1,-1,-4
69,190,71,35,11,240.0,1.0,95,27,7,4,7,5,-1,-1,1,-3
70,193,69,34,9,243.0,1.0,105,28,5,3,5,4,2,1,-1,-4
71,196,69,34,9,246.0,1.0,95,28,5,3,5,4,2,1,0,-4
72,199,67,33,7,249.0,1.0,95,28,3,2,3,3,1,1,-1,-5
73,202,60,29,0,252.0,4.0,105,29,-4,-2,8,6,-14,-8,-1,-6
74,205,71,35,11,258.0,1.0,95,29,7,4,7,5,2,1,1,-5
75,208,64,31,4,261.0,3.0,105,30,0,0,0,1,-3,-2,-1,-6
76,209,64,31,4,264.0,2.0,95,30,0,0,0,1,0,0,0,-6
77,211,60,29,0,267.0,1.0,95,30,-4,-2,8,6,-2,-1,-1,-7
78,214,71,35,11,270.0,1.0,105,31,7,4,7,5,2,1,1,-6
79,217,69,34,9,273.0,1.0,95,31,5,3,5,4,2,1,-1,-7
