,index,midi_note_num,diatonic_note_num,chromatic_pitch_class,onset,duration,velocity,bar_count,relative_chromatic_pitch,relative_diatonic_pitch,chromatic_scale_degree,diatonic_scale_degree,chromatic_interval,diatonic_interval,parsons_code,parsons_cumsum
0,1,78,39,6,1.0,1.0,105,0,11,6,11,7,0,0,0,0
1,4,72,36,0,4.0,1.0,95,0,5,3,5,4,-2,-1,-1,-1
2,7,69,34,9,7.0,1.0,105,1,2,1,2,2,2,1,-1,-2
3,10,72,36,0,10.0,1.0,95,1,5,3,5,4,1,1,1,-1
4,13,66,32,6,13.0,2.0,105,2,-1,-1,11,7,-1,-1,-1,-2
5,15,62,30,2,16.0,1.0,95,2,-5,-3,7,5,0,0,-1,-3
6,18,66,32,6,19.0,1.0,105,3,-1,-1,11,7,4,2,1,-2
7,21,67,33,7,22.0,1.0,95,3,0,0,0,1,1,1,1,-1
8,24,69,34,9,25.0,1.0,105,4,2,1,2,2,2,1,1,0
9,27,72,36,0,28.0,1.0,95,4,5,3,5,4,3,2,1,1
10,30,69,34,9,31.0,1.0,105,5,2,1,2,2,2,1,-1,0
11,33,72,36,0,34.0,1.0,95,5,5,3,5,4,3,2,1,1
12,36,78,39,6,37.0,1.0,105,6,11,6,11,7,2,1,1,2
13,39,72,36,0,40.0,1.0,95,6,5,3,5,4,-2,-1,-1,1
14,42,69,34,9,43.0,1.0,105,7,2,1,2,2,2,1,-1,0
15,45,74,37,2,46.0,2.0,95,7,7,4,7,5,1,1,1,1
16,47,78,39,6,49.0,1.0,105,8,11,6,11,7,2,1,1,2
17,50,72,36,0,52.0,1.0,95,8,5,3,5,4,-2,-1,-1,1
18,53,69,34,9,55.0,1.0,105,9,2,1,2,2,2,1,-1,0
19,56,72,36,0,58.0,1.0,95,9,5,3,5,4,1,1,1,1
20,59,66,32,6,61.0,2.0,105,10,-1,-1,11,7,-1,-1,-1,0
21,61,62,30,2,64.0,1.0,95,10,-5,-3,7,5,0,0,-1,-1
22,64,66,32,6,67.0,1.0,105,11,-1,-1,11,7,4,2,1,0
23,67,67,33,7,70.0,1.0,95,11,0,0,0,1,1,1,1,1
24,70,69,34,9,73.0,1.0,105,12,2,1,2,2,2,1,1,2
25,73,72,36,0,76.0,1.0,95,12,5,3,5,4,3,2,1,3
26,76,69,34,9,79.0,1.0,105,13,2,1,2,2,2,1,-1,2
27,79,72,36,0,82.0,1.0,95,13,5,3,5,4,3,2,1,3
28,82,78,39,6,85.0,1.0,105,14,11,6,11,7,2,1,1,4
29,85,72,36,0,88.0,1.0,95,14,5,3,5,4,-2,-1,-1,3
30,88,69,34,9,91.0,1.0,105,15,2,1,2,2,2,1,-1,2
31,91,74,37,2,94.0,2.0,95,15,7,4,7,5,1,1,1,3
32,93,78,39,6,97.0,2.0,105,16,11,6,11,7,2,1,1,4
33,95,74,37,2,100.0,1.0,95,16,7,4,7,5,0,0,-1,3
34,98,78,39,6,103.0,2.0,105,17,11,6,11,7,4,2,1,4
35,100,81,41,9,106.0,1.0,95,17,14,8,2,2,0,0,1,5
36,103,76,38,4,109.0,2.0,105,18,9,5,9,6,-2,-1,-1,4
37,105,72,36,0,112.0,1.0,95,18,5,3,5,4,0,0,-1,3
38,108,76,38,4,115.0,1.0,105,19,9,5,9,6,4,2,1,4
39,111,79,40,7,118.0,1.0,95,19,12,7,0,1,0,0,1,5
40,114,78,39,6,121.0,2.0,105,20,11,6,11,7,2,1,-1,4
41,116,81,41,9,124.0,1.0,95,20,14,8,2,2,2,1,1,5
42,119,76,38,4,127.0,2.0,105,21,9,5,9,6,-2,-1,-1,4
43,121,79,40,7,130.0,1.0,95,21,12,7,0,1,1,1,1,5
44,124,78,39,6,133.0,1.0,105,22,11,6,11,7,2,1,-1,4
45,127,72,36,0,136.0,1.0,95,22,5,3,5,4,-2,-1,-1,3
46,130,69,34,9,139.0,1.0,105,23,2,1,2,2,2,1,-1,2
47,133,74,37,2,142.0,2.0,95,23,7,4,7,5,1,1,1,3
48,135,78,39,6,145.0,2.0,105,24,11,6,11,7,2,1,1,4
49,137,74,37,2,148.0,1.0,95,24,7,4,7,5,0,0,-1,3
50,140,78,39,6,151.0,2.0,105,25,11,6,11,7,4,2,1,4
51,142,81,41,9,154.0,1.0,95,25,14,8,2,2,0,0,1,5
52,145,76,38,4,157.0,2.0,105,26,9,5,9,6,-2,-1,-1,4
53,147,72,36,0,160.0,1.0,95,26,5,3,5,4,0,0,-1,3
54,150,76,38,4,163.0,1.0,105,27,9,5,9,6,4,2,1,4
55,153,79,40,7,166.0,1.0,95,27,12,7,0,1,0,0,1,5
56,156,78,39,6,169.0,2.0,105,28,11,6,11,7,2,1,-1,4
57,158,81,41,9,172.0,1.0,95,28,14,8,2,2,2,1,1,5
58,161,76,38,4,175.0,2.0,105,29,9,5,9,6,-2,-1,-1,4
59,163,79,40,7,178.0,1.0,95,29,12,7,0,1,1,1,1,5
60,166,78,39,6,181.0,1.0,105,30,11,6,11,7,2,1,-1,4
61,169,72,36,0,184.0,1.0,95,30,5,3,5,4,-2,-1,-1,3
62,172,69,34,9,187.0,1.0,105,31,2,1,2,2,2,1,-1,2
63,175,74,37,2,190.0,2.0,95,31,7,4,7,5,1,1,1,3
64,177,78,39,6,193.0,2.0,105,32,11,6,11,7,2,1,1,4
65,179,76,38,4,196.0,2.0,95,32,9,5,9,6,-3,-2,-1,3
66,181,74,37,2,199.0,2.0,105,33,7,4,7,5,-4,-2,-1,2
67,183,72,36,0,202.0,2.0,95,33,5,3,5,4,-4,-2,-1,1
68,185,69,34,9,205.0,1.0,105,34,2,1,2,2,-5,-3,-1,0
69,188,67,33,7,208.0,1.0,95,34,0,0,0,1,-2,-1,-1,-1
70,191,66,32,6,211.0,1.0,105,35,-1,-1,11,7,-1,-1,-1,-2
71,194,66,32,6,214.0,1.0,95,35,-1,-1,11,7,-1,-1,0,-2
72,197,72,36,0,217.0,2.0,105,36,5,3,5,4,10,6,1,-1
73,199,72,36,0,220.0,1.0,95,36,5,3,5,4,0,0,0,-1
74,202,69,34,9,223.0,1.0,105,37,2,1,2,2,2,1,-1,-2
75,205,72,36,0,226.0,1.0,95,37,5,3,5,4,3,2,1,-1
76,208,78,39,6,229.0,1.0,105,38,11,6,11,7,4,2,1,0
77,211,72,36,0,232.0,1.0,95,38,5,3,5,4,-2,-1,-1,-1
78,214,69,34,9,235.0,1.0,105,39,2,1,2,2,2,1,-1,-2
79,217,74,37,2,238.0,2.0,95,39,7,4,7,5,1,1,1,-1
80,219,78,39,6,241.0,2.0,105,40,11,6,11,7,2,1,1,0
81,221,76,38,4,244.0,2.0,95,40,9,5,9,6,-3,-2,-1,-1
82,223,74,37,2,247.0,2.0,105,41,7,4,7,5,-4,-2,-1,-2
83,225,72,36,0,250.0,2.0,95,41,5,3,5,4,-4,-2,-1,-3
84,227,69,34,9,253.0,1.0,105,42,2,1,2,2,-5,-3,-1,-4
85,230,67,33,7,256.0,1.0,95,42,0,0,0,1,-2,-1,-1,-5
86,233,66,32,6,259.0,1.0,105,43,-1,-1,11,7,-1,-1,-1,-6
87,236,66,32,6,262.0,1.0,95,43,-1,-1,11,7,-1,-1,0,-6
88,239,72,36,0,265.0,2.0,105,44,5,3,5,4,10,6,1,-5
89,241,72,36,0,268.0,1.0,95,44,5,3,5,4,0,0,0,-5
90,244,69,34,9,271.0,1.0,105,45,2,1,2,2,2,1,-1,-6
91,247,72,36,0,274.0,1.0,95,45,5,3,5,4,3,2,1,-5
92,250,78,39,6,277.0,1.0,105,46,11,6,11,7,4,2,1,-4
93,253,72,36,0,280.0,1.0,95,46,5,3,5,4,-2,-1,-1,-5
94,256,69,34,9,283.0,1.0,105,47,2,1,2,2,2,1,-1,-6
95,259,74,37,2,286.0,2.0,95,47,7,4,7,5,1,1,1,-5
