,index,midi_note_num,diatonic_note_num,chromatic_pitch_class,onset,duration,velocity,bar_count,relative_chromatic_pitch,relative_diatonic_pitch,chromatic_scale_degree,diatonic_scale_degree,chromatic_interval,diatonic_interval,parsons_code,parsons_cumsum
0,0,81,41,9,0.0,1.0,105,0,19,11,7,5,0,0,0,0
1,3,78,39,6,3.0,1.0,95,0,16,9,4,3,0,0,-1,-1
2,6,79,40,7,6.0,1.0,105,1,17,10,5,4,-2,-1,1,0
3,9,76,38,4,9.0,1.0,95,1,14,8,2,2,0,0,-1,-1
4,14,79,40,7,12.0,1.0,105,2,17,10,5,4,3,2,1,0
5,17,76,38,4,15.0,1.0,95,2,14,8,2,2,0,0,-1,-1
6,20,78,39,6,18.0,1.0,105,3,16,9,4,3,-1,-1,1,0
7,23,76,38,4,21.0,0.5,95,3,14,8,2,2,2,1,-1,-1
8,27,81,41,9,24.0,1.0,105,4,19,11,7,5,2,1,1,0
9,30,78,39,6,27.0,1.0,95,4,16,9,4,3,0,0,-1,-1
10,33,79,40,7,30.0,1.0,105,5,17,10,5,4,-2,-1,1,0
11,36,76,38,4,33.0,1.0,95,5,14,8,2,2,0,0,-1,-1
12,41,79,40,7,36.0,1.0,105,6,17,10,5,4,3,2,1,0
13,44,69,34,9,39.0,1.0,95,6,7,4,7,5,-7,-4,-1,-1
14,47,74,37,2,42.0,1.0,105,7,12,7,0,1,1,1,1,0
15,52,73,36,1,45.0,1.0,95,7,11,6,11,7,-1,-1,-1,-1
16,57,81,41,9,48.0,1.0,105,8,19,11,7,5,8,5,1,0
17,60,78,39,6,51.0,1.0,95,8,16,9,4,3,0,0,-1,-1
18,63,79,40,7,54.0,1.0,105,9,17,10,5,4,-2,-1,1,0
19,66,76,38,4,57.0,1.0,95,9,14,8,2,2,0,0,-1,-1
20,71,79,40,7,60.0,1.0,105,10,17,10,5,4,3,2,1,0
21,74,76,38,4,63.0,1.0,95,10,14,8,2,2,0,0,-1,-1
22,77,78,39,6,66.0,1.0,105,11,16,9,4,3,-1,-1,1,0
23,80,76,38,4,69.0,0.5,95,11,14,8,2,2,2,1,-1,-1
24,84,81,41,9,72.0,1.0,105,12,19,11,7,5,2,1,1,0
25,87,78,39,6,75.0,1.0,95,12,16,9,4,3,0,0,-1,-1
26,90,79,40,7,78.0,1.0,105,13,17,10,5,4,-2,-1,1,0
27,93,76,38,4,81.0,1.0,95,13,14,8,2,2,0,0,-1,-1
28,98,79,40,7,84.0,1.0,105,14,17,10,5,4,3,2,1,0
29,101,69,34,9,87.0,1.0,95,14,7,4,7,5,-7,-4,-1,-1
30,104,74,37,2,90.0,1.0,105,15,12,7,0,1,1,1,1,0
31,109,76,38,4,93.0,1.0,95,15,14,8,2,2,2,1,1,1
32,114,78,39,6,96.0,1.0,105,16,16,9,4,3,2,1,1,2
33,117,74,37,2,99.0,1.0,95,16,12,7,0,1,0,0,-1,1
34,121,79,40,7,102.0,1.0,105,17,17,10,5,4,5,3,1,2
35,124,76,38,4,105.0,1.0,95,17,14,8,2,2,0,0,-1,1
36,129,79,40,7,108.0,1.0,105,18,17,10,5,4,3,2,1,2
37,132,81,41,9,111.0,1.0,95,18,19,11,7,5,5,3,1,3
38,135,76,38,4,114.0,1.0,105,19,14,8,2,2,-2,-1,-1,2
39,138,76,38,4,117.0,0.5,95,19,14,8,2,2,3,2,0,2
40,141,78,39,6,120.0,1.0,105,20,16,9,4,3,2,1,1,3
41,144,74,37,2,123.0,1.0,95,20,12,7,0,1,0,0,-1,2
42,148,79,40,7,126.0,1.0,105,21,17,10,5,4,5,3,1,3
43,151,76,38,4,129.0,1.0,95,21,14,8,2,2,0,0,-1,2
44,156,79,40,7,132.0,1.0,105,22,17,10,5,4,3,2,1,3
45,159,81,41,9,135.0,1.0,95,22,19,11,7,5,5,3,1,4
46,162,69,34,9,138.0,1.0,105,23,7,4,7,5,-9,-5,-1,3
47,165,76,38,4,141.0,0.5,95,23,14,8,2,2,3,2,1,4
48,168,78,39,6,144.0,1.0,105,24,16,9,4,3,2,1,1,5
49,171,74,37,2,147.0,1.0,95,24,12,7,0,1,0,0,-1,4
50,175,79,40,7,150.0,1.0,105,25,17,10,5,4,5,3,1,5
51,178,76,38,4,153.0,1.0,95,25,14,8,2,2,0,0,-1,4
52,183,79,40,7,156.0,1.0,105,26,17,10,5,4,3,2,1,5
53,186,81,41,9,159.0,1.0,95,26,19,11,7,5,5,3,1,6
54,189,76,38,4,162.0,1.0,105,27,14,8,2,2,-2,-1,-1,5
55,192,76,38,4,165.0,0.5,95,27,14,8,2,2,3,2,0,5
56,195,78,39,6,168.0,1.0,105,28,16,9,4,3,2,1,1,6
57,198,74,37,2,171.0,1.0,95,28,12,7,0,1,0,0,-1,5
58,202,79,40,7,174.0,1.0,105,29,17,10,5,4,5,3,1,6
59,205,76,38,4,177.0,1.0,95,29,14,8,2,2,0,0,-1,5
60,210,79,40,7,180.0,1.0,105,30,17,10,5,4,3,2,1,6
61,213,81,41,9,183.0,1.0,95,30,19,11,7,5,5,3,1,7
62,216,69,34,9,186.0,1.0,105,31,7,4,7,5,-9,-5,-1,6
63,219,74,37,2,189.0,1.0,95,31,12,7,0,1,1,1,1,7
64,224,76,38,4,192.0,1.0,105,32,14,8,2,2,2,1,1,8
65,227,73,36,1,195.0,1.0,95,32,11,6,11,7,2,1,-1,7
66,230,78,39,6,198.0,1.0,105,33,16,9,4,3,2,1,1,8
67,233,73,36,1,201.0,1.0,95,33,11,6,11,7,2,1,-1,7
68,236,79,40,7,204.0,1.0,105,34,17,10,5,4,3,2,1,8
69,239,81,41,9,207.0,1.0,95,34,19,11,7,5,5,3,1,9
70,242,79,40,7,210.0,1.0,105,35,17,10,5,4,-2,-1,-1,8
71,247,78,39,6,213.0,1.0,95,35,16,9,4,3,-1,-1,-1,7
72,250,76,38,4,216.0,1.0,105,36,14,8,2,2,2,1,-1,6
73,253,73,36,1,219.0,1.0,95,36,11,6,11,7,2,1,-1,5
74,256,78,39,6,222.0,1.0,105,37,16,9,4,3,2,1,1,6
75,259,73,36,1,225.0,1.0,95,37,11,6,11,7,2,1,-1,5
76,262,79,40,7,228.0,1.0,105,38,17,10,5,4,3,2,1,6
77,265,81,41,9,231.0,1.0,95,38,19,11,7,5,5,3,1,7
78,268,76,38,4,234.0,1.0,105,39,14,8,2,2,-2,-1,-1,6
79,271,74,37,2,237.0,1.0,95,39,12,7,0,1,1,1,-1,5
80,276,76,38,4,240.0,1.0,105,40,14,8,2,2,2,1,1,6
81,279,73,36,1,243.0,1.0,95,40,11,6,11,7,2,1,-1,5
82,282,78,39,6,246.0,1.0,105,41,16,9,4,3,2,1,1,6
83,285,73,36,1,249.0,1.0,95,41,11,6,11,7,2,1,-1,5
84,288,79,40,7,252.0,1.0,105,42,17,10,5,4,3,2,1,6
85,291,81,41,9,255.0,1.0,95,42,19,11,7,5,5,3,1,7
86,294,79,40,7,258.0,1.0,105,43,17,10,5,4,-2,-1,-1,6
87,299,78,39,6,261.0,1.0,95,43,16,9,4,3,-1,-1,-1,5
88,302,76,38,4,264.0,1.0,105,44,14,8,2,2,2,1,-1,4
89,305,73,36,1,267.0,1.0,95,44,11,6,11,7,2,1,-1,3
90,308,78,39,6,270.0,1.0,105,45,16,9,4,3,2,1,1,4
91,311,73,36,1,273.0,1.0,95,45,11,6,11,7,2,1,-1,3
92,314,79,40,7,276.0,1.0,105,46,17,10,5,4,3,2,1,4
93,317,81,41,9,279.0,1.0,95,46,19,11,7,5,5,3,1,5
94,320,76,38,4,282.0,1.0,105,47,14,8,2,2,-2,-1,-1,4
95,323,74,37,2,285.0,1.0,95,47,12,7,0,1,1,1,-1,3
