,index,midi_note_num,diatonic_note_num,chromatic_pitch_class,onset,duration,velocity,bar_count,relative_chromatic_pitch,relative_diatonic_pitch,chromatic_scale_degree,diatonic_scale_degree,chromatic_interval,diatonic_interval,parsons_code,parsons_cumsum
0,2,62,30,2,2.0,2.0,105,0,0,0,0,1,0,0,0,0
1,5,71,35,11,6.0,3.0,95,0,9,5,9,6,2,1,1,1
2,7,78,39,6,10.0,1.0,105,1,16,9,4,3,4,2,1,2
3,11,71,35,11,14.0,1.0,95,1,9,5,9,6,-3,-2,-1,1
4,15,62,30,2,18.0,2.0,105,2,0,0,0,1,-2,-1,-1,0
5,18,69,34,9,22.0,1.0,95,2,7,4,7,5,0,0,1,1
6,22,69,34,9,26.0,1.0,105,3,7,4,7,5,-2,-1,0,1
7,26,64,31,4,30.0,0.67,95,3,2,1,2,2,-2,-1,-1,0
8,31,62,30,2,34.0,2.0,105,4,0,0,0,1,-2,-1,-1,-1
9,34,78,39,6,38.0,2.0,95,4,16,9,4,3,9,5,1,0
10,37,76,38,4,42.0,1.0,105,5,14,8,2,2,-2,-1,-1,-1
11,41,74,37,2,46.0,1.0,95,5,12,7,0,1,-2,-1,-1,-2
12,44,78,39,6,50.0,2.0,105,6,16,9,4,3,9,5,1,-1
13,47,71,35,11,54.0,1.0,95,6,9,5,9,6,-3,-2,-1,-2
14,51,69,34,9,58.0,1.0,105,7,7,4,7,5,-2,-1,-1,-3
15,55,62,30,2,62.0,2.0,95,7,0,0,0,1,-4,-2,-1,-4
16,59,62,30,2,66.0,2.0,105,8,0,0,0,1,0,0,0,-4
17,62,71,35,11,70.0,3.0,95,8,9,5,9,6,2,1,1,-3
18,64,78,39,6,74.0,1.0,105,9,16,9,4,3,4,2,1,-2
19,68,71,35,11,78.0,1.0,95,9,9,5,9,6,-3,-2,-1,-3
20,72,62,30,2,82.0,2.0,105,10,0,0,0,1,-2,-1,-1,-4
21,75,69,34,9,86.0,1.0,95,10,7,4,7,5,0,0,1,-3
22,79,69,34,9,90.0,1.0,105,11,7,4,7,5,-2,-1,0,-3
23,83,64,31,4,94.0,0.67,95,11,2,1,2,2,-2,-1,-1,-4
24,88,62,30,2,98.0,2.0,105,12,0,0,0,1,-2,-1,-1,-5
25,91,78,39,6,102.0,2.0,95,12,16,9,4,3,9,5,1,-4
26,94,76,38,4,106.0,1.0,105,13,14,8,2,2,-2,-1,-1,-5
27,98,74,37,2,110.0,1.0,95,13,12,7,0,1,-2,-1,-1,-6
28,101,78,39,6,114.0,2.0,105,14,16,9,4,3,9,5,1,-5
29,104,71,35,11,118.0,1.0,95,14,9,5,9,6,-3,-2,-1,-6
30,108,69,34,9,122.0,1.0,105,15,7,4,7,5,-2,-1,-1,-7
31,112,62,30,2,126.0,1.0,95,15,0,0,0,1,-4,-2,-1,-8
32,115,78,39,6,130.0,2.0,105,16,16,9,4,3,4,2,1,-7
33,118,81,41,9,134.0,1.0,95,16,19,11,7,5,7,4,1,-6
34,122,74,37,2,138.0,1.0,105,17,12,7,0,1,0,0,-1,-7
35,127,71,35,11,142.0,1.0,95,17,9,5,9,6,-3,-2,-1,-8
36,130,78,39,6,146.0,2.0,105,18,16,9,4,3,9,5,1,-7
37,133,81,41,9,150.0,1.0,95,18,19,11,7,5,7,4,1,-6
38,138,69,34,9,154.0,1.0,105,19,7,4,7,5,-5,-3,-1,-7
39,142,71,35,11,158.0,1.0,95,19,9,5,9,6,2,1,1,-6
40,146,78,39,6,162.0,2.0,105,20,16,9,4,3,2,1,1,-5
41,149,81,41,9,166.0,1.0,95,20,19,11,7,5,7,4,1,-4
42,154,74,37,2,170.0,1.0,105,21,12,7,0,1,0,0,-1,-5
43,159,71,35,11,174.0,1.0,95,21,9,5,9,6,-3,-2,-1,-6
44,162,78,39,6,178.0,2.0,105,22,16,9,4,3,9,5,1,-5
45,165,71,35,11,182.0,1.0,95,22,9,5,9,6,-3,-2,-1,-6
46,169,69,34,9,186.0,1.0,105,23,7,4,7,5,-2,-1,-1,-7
47,173,62,30,2,190.0,1.0,95,23,0,0,0,1,-4,-2,-1,-8
48,177,78,39,6,194.0,2.0,105,24,16,9,4,3,4,2,1,-7
49,180,81,41,9,198.0,1.0,95,24,19,11,7,5,7,4,1,-6
50,184,74,37,2,202.0,1.0,105,25,12,7,0,1,0,0,-1,-7
51,189,71,35,11,206.0,1.0,95,25,9,5,9,6,-3,-2,-1,-8
52,192,78,39,6,210.0,2.0,105,26,16,9,4,3,9,5,1,-7
53,195,81,41,9,214.0,1.0,95,26,19,11,7,5,7,4,1,-6
54,200,69,34,9,218.0,1.0,105,27,7,4,7,5,-5,-3,-1,-7
55,204,71,35,11,222.0,1.0,95,27,9,5,9,6,2,1,1,-6
56,208,78,39,6,226.0,2.0,105,28,16,9,4,3,2,1,1,-5
57,211,81,41,9,230.0,1.0,95,28,19,11,7,5,7,4,1,-4
58,216,74,37,2,234.0,1.0,105,29,12,7,0,1,0,0,-1,-5
59,221,71,35,11,238.0,1.0,95,29,9,5,9,6,-3,-2,-1,-6
60,224,78,39,6,242.0,2.0,105,30,16,9,4,3,9,5,1,-5
61,227,71,35,11,246.0,1.0,95,30,9,5,9,6,-3,-2,-1,-6
62,231,69,34,9,250.0,1.0,105,31,7,4,7,5,-2,-1,-1,-7
63,235,62,30,2,254.0,1.0,95,31,0,0,0,1,-4,-2,-1,-8
64,238,69,34,9,258.0,1.0,105,32,7,4,7,5,-2,-1,1,-7
65,243,62,30,2,262.0,2.0,95,32,0,0,0,1,0,0,-1,-8
66,246,71,35,11,266.0,1.0,105,33,9,5,9,6,2,1,1,-7
67,250,78,39,6,270.0,2.0,95,33,16,9,4,3,9,5,1,-6
68,253,76,38,4,274.0,1.0,105,34,14,8,2,2,-2,-1,-1,-7
69,257,74,37,2,278.0,1.0,95,34,12,7,0,1,-2,-1,-1,-8
70,261,78,39,6,282.0,2.0,105,35,16,9,4,3,4,2,1,-7
71,264,71,35,11,286.0,1.0,95,35,9,5,9,6,-3,-2,-1,-8
72,268,62,30,2,290.0,3.0,105,36,0,0,0,1,-2,-1,-1,-9
73,270,66,32,6,294.0,1.0,95,36,4,2,4,3,2,1,1,-8
74,274,69,34,9,298.0,1.0,105,37,7,4,7,5,3,2,1,-7
75,278,78,39,6,302.0,2.0,95,37,16,9,4,3,9,5,1,-6
76,281,76,38,4,306.0,3.0,105,38,14,8,2,2,-2,-1,-1,-7
77,283,78,39,6,310.0,1.0,95,38,16,9,4,3,4,2,1,-6
78,287,69,34,9,314.0,1.0,105,39,7,4,7,5,-2,-1,-1,-7
79,291,62,30,2,318.0,1.0,95,39,0,0,0,1,-4,-2,-1,-8
80,294,69,34,9,322.0,1.0,105,40,7,4,7,5,-2,-1,1,-7
81,299,62,30,2,326.0,2.0,95,40,0,0,0,1,0,0,-1,-8
82,302,71,35,11,330.0,1.0,105,41,9,5,9,6,2,1,1,-7
83,306,78,39,6,334.0,2.0,95,41,16,9,4,3,9,5,1,-6
84,309,76,38,4,338.0,1.0,105,42,14,8,2,2,-2,-1,-1,-7
85,313,74,37,2,342.0,1.0,95,42,12,7,0,1,-2,-1,-1,-8
86,317,78,39,6,346.0,2.0,105,43,16,9,4,3,4,2,1,-7
87,320,71,35,11,350.0,1.0,95,43,9,5,9,6,-3,-2,-1,-8
88,324,62,30,2,354.0,3.0,105,44,0,0,0,1,-2,-1,-1,-9
89,326,66,32,6,358.0,1.0,95,44,4,2,4,3,2,1,1,-8
90,330,69,34,9,362.0,1.0,105,45,7,4,7,5,3,2,1,-7
91,334,78,39,6,366.0,2.0,95,45,16,9,4,3,9,5,1,-6
92,337,76,38,4,370.0,3.0,105,46,14,8,2,2,-2,-1,-1,-7
93,339,78,39,6,374.0,1.0,95,46,16,9,4,3,4,2,1,-6
94,343,69,34,9,378.0,1.0,105,47,7,4,7,5,-2,-1,-1,-7
95,347,62,30,2,382.0,4.0,95,47,0,0,0,1,-4,-2,-1,-8
