,index,midi_note_num,diatonic_note_num,chromatic_pitch_class,onset,duration,velocity,bar_count,relative_chromatic_pitch,relative_diatonic_pitch,chromatic_scale_degree,diatonic_scale_degree,chromatic_interval,diatonic_interval,parsons_code,parsons_cumsum
0,1,67,33,7,1.0,1.0,105,0,5,3,5,4,0,0,0,0
1,5,69,34,9,5.0,2.0,95,0,7,4,7,5,7,4,1,1
2,7,67,33,7,9.0,1.0,105,1,5,3,5,4,-7,-4,-1,0
3,11,57,27,9,13.0,2.0,95,1,-5,-3,7,5,-5,-3,-1,-1
4,13,67,33,7,17.0,1.0,105,2,5,3,5,4,5,3,1,0
5,17,69,34,9,21.0,2.0,95,2,7,4,7,5,7,4,1,1
6,19,69,34,9,25.0,2.0,105,3,7,4,7,5,-5,-3,0,1
7,21,62,30,2,29.0,3.0,95,3,0,0,0,1,0,0,-1,0
8,23,67,33,7,33.0,1.0,105,4,5,3,5,4,0,0,1,1
9,27,69,34,9,37.0,2.0,95,4,7,4,7,5,7,4,1,2
10,29,67,33,7,41.0,1.0,105,5,5,3,5,4,-7,-4,-1,1
11,33,57,27,9,45.0,2.0,95,5,-5,-3,7,5,-5,-3,-1,0
12,35,67,33,7,49.0,1.0,105,6,5,3,5,4,5,3,1,1
13,39,69,34,9,53.0,2.0,95,6,7,4,7,5,7,4,1,2
14,41,69,34,9,57.0,2.0,105,7,7,4,7,5,-5,-3,0,2
15,43,62,30,2,61.0,3.0,95,7,0,0,0,1,0,0,-1,1
16,45,78,39,6,65.0,1.0,105,8,16,9,4,3,0,0,1,2
17,49,81,41,9,69.0,2.0,95,8,19,11,7,5,2,1,1,3
18,51,71,35,11,73.0,1.0,105,9,9,5,9,6,2,1,-1,2
19,55,74,37,2,77.0,3.0,95,9,12,7,0,1,1,1,1,3
20,57,78,39,6,81.0,1.0,105,10,16,9,4,3,-1,-1,1,4
21,61,81,41,9,85.0,2.0,95,10,19,11,7,5,2,1,1,5
22,64,71,35,11,89.0,1.0,105,11,9,5,9,6,-3,-2,-1,4
23,68,74,37,2,93.0,3.0,95,11,12,7,0,1,1,1,1,5
24,70,78,39,6,97.0,1.0,105,12,16,9,4,3,-1,-1,1,6
25,74,81,41,9,101.0,2.0,95,12,19,11,7,5,2,1,1,7
26,77,71,35,11,105.0,1.0,105,13,9,5,9,6,-3,-2,-1,6
27,81,74,37,2,109.0,1.0,95,13,12,7,0,1,1,1,1,7
28,85,78,39,6,113.0,1.0,105,14,16,9,4,3,-1,-1,1,8
29,89,81,41,9,117.0,2.0,95,14,19,11,7,5,2,1,1,9
30,92,71,35,11,121.0,1.0,105,15,9,5,9,6,-3,-2,-1,8
31,96,74,37,2,125.0,3.0,95,15,12,7,0,1,1,1,1,9
32,98,62,30,2,129.0,1.0,105,16,0,0,0,1,-4,-2,-1,8
33,102,67,33,7,133.0,1.0,95,16,5,3,5,4,1,1,1,9
34,106,66,32,6,137.0,1.0,105,17,4,2,4,3,-1,-1,-1,8
35,110,74,37,2,141.0,1.0,95,17,12,7,0,1,5,3,1,9
36,115,64,31,4,145.0,3.0,105,18,2,1,2,2,2,1,-1,8
37,117,67,33,7,149.0,1.0,95,18,5,3,5,4,1,1,1,9
38,121,66,32,6,153.0,2.0,105,19,4,2,4,3,-1,-1,-1,8
39,123,62,30,2,157.0,2.0,95,19,0,0,0,1,0,0,-1,7
40,126,64,31,4,161.0,3.0,105,20,2,1,2,2,2,1,1,8
41,128,67,33,7,165.0,1.0,95,20,5,3,5,4,1,1,1,9
42,132,66,32,6,169.0,0.5,105,21,4,2,4,3,-1,-1,-1,8
43,137,74,37,2,173.0,1.0,95,21,12,7,0,1,5,3,1,9
44,141,64,31,4,177.0,3.0,105,22,2,1,2,2,-5,-3,-1,8
45,143,67,33,7,181.0,1.0,95,22,5,3,5,4,1,1,1,9
46,147,66,32,6,185.0,2.0,105,23,4,2,4,3,-1,-1,-1,8
47,149,62,30,2,189.0,2.0,95,23,0,0,0,1,0,0,-1,7
48,153,78,39,6,193.0,4.0,105,24,16,9,4,3,4,2,1,8
49,154,78,39,6,197.0,3.0,95,24,16,9,4,3,0,0,0,8
50,159,69,34,9,205.0,1.0,95,24,7,4,7,5,-5,-3,-1,7
51,163,78,39,6,209.0,4.0,105,25,16,9,4,3,4,2,1,8
52,164,78,39,6,213.0,3.0,95,25,16,9,4,3,0,0,0,8
53,169,74,37,2,221.0,0.5,95,25,12,7,0,1,1,1,-1,7
54,174,78,39,6,225.0,4.0,105,26,16,9,4,3,-1,-1,1,8
55,175,78,39,6,229.0,3.0,95,26,16,9,4,3,0,0,0,8
56,180,69,34,9,237.0,1.0,95,26,7,4,7,5,-5,-3,-1,7
57,184,78,39,6,241.0,4.0,105,27,16,9,4,3,4,2,1,8
58,185,78,39,6,245.0,3.0,95,27,16,9,4,3,0,0,0,8
59,190,74,37,2,253.0,2.0,95,27,12,7,0,1,1,1,-1,7
60,193,78,39,6,257.0,2.0,105,28,16,9,4,3,-1,-1,1,8
61,195,74,37,2,261.0,1.0,95,28,12,7,0,1,0,0,-1,7
62,200,66,32,6,265.0,1.0,105,29,4,2,4,3,-3,-2,-1,6
63,204,69,34,9,269.0,1.0,95,29,7,4,7,5,-2,-1,1,7
64,208,78,39,6,273.0,2.0,105,30,16,9,4,3,-1,-1,1,8
65,210,74,37,2,277.0,1.0,95,30,12,7,0,1,0,0,-1,7
66,215,69,34,9,281.0,2.0,105,31,7,4,7,5,0,0,-1,6
67,217,62,30,2,285.0,2.0,95,31,0,0,0,1,0,0,-1,5
68,221,78,39,6,289.0,2.0,105,32,16,9,4,3,-1,-1,1,6
69,223,74,37,2,293.0,1.0,95,32,12,7,0,1,0,0,-1,5
70,228,66,32,6,297.0,1.0,105,33,4,2,4,3,-3,-2,-1,4
71,232,69,34,9,301.0,1.0,95,33,7,4,7,5,-2,-1,1,5
72,236,78,39,6,305.0,2.0,105,34,16,9,4,3,-1,-1,1,6
73,238,74,37,2,309.0,1.0,95,34,12,7,0,1,0,0,-1,5
74,243,69,34,9,313.0,2.0,105,35,7,4,7,5,0,0,-1,4
75,245,62,30,2,317.0,3.0,95,35,0,0,0,1,0,0,-1,3
76,247,74,37,2,321.0,1.0,105,36,12,7,0,1,5,3,1,4
77,251,81,41,9,325.0,1.0,95,36,19,11,7,5,2,1,1,5
78,256,78,39,6,329.0,1.0,105,37,16,9,4,3,2,1,-1,4
79,260,74,37,2,333.0,1.0,95,37,12,7,0,1,0,0,-1,3
80,264,74,37,2,337.0,1.0,105,38,12,7,0,1,5,3,0,3
81,268,81,41,9,341.0,1.0,95,38,19,11,7,5,2,1,1,4
82,272,78,39,6,345.0,0.5,105,39,16,9,4,3,2,1,-1,3
83,277,74,37,2,349.0,2.0,95,39,12,7,0,1,1,1,-1,2
84,281,74,37,2,353.0,1.0,105,40,12,7,0,1,1,1,0,2
85,285,81,41,9,357.0,1.0,95,40,19,11,7,5,2,1,1,3
86,290,78,39,6,361.0,1.0,105,41,16,9,4,3,2,1,-1,2
87,294,74,37,2,365.0,1.0,95,41,12,7,0,1,1,1,-1,1
88,299,74,37,2,369.0,1.0,105,42,12,7,0,1,5,3,0,1
89,303,81,41,9,373.0,1.0,95,42,19,11,7,5,2,1,1,2
90,307,78,39,6,377.0,1.0,105,43,16,9,4,3,2,1,-1,1
91,311,74,37,2,381.0,3.0,95,43,12,7,0,1,1,1,-1,0
