,index,midi_note_num,diatonic_note_num,chromatic_pitch_class,onset,duration,velocity,bar_count,relative_chromatic_pitch,relative_diatonic_pitch,chromatic_scale_degree,diatonic_scale_degree,chromatic_interval,diatonic_interval,parsons_code,parsons_cumsum
0,3,79,40,7,1.0,2.0,105,0,12,7,0,1,0,0,0,0
1,5,78,39,6,4.0,2.0,95,0,11,6,11,7,11,6,-1,-1
2,7,76,38,4,7.0,2.0,105,1,9,5,9,6,9,5,-1,-2
3,9,74,37,2,10.0,3.0,95,1,7,4,7,5,7,4,-1,-3
4,10,62,30,2,13.0,1.0,105,2,-5,-3,7,5,-12,-7,-1,-4
5,13,74,37,2,16.0,1.0,95,2,7,4,7,5,3,2,1,-3
6,16,62,30,2,19.0,1.0,105,3,-5,-3,7,5,-5,-3,-1,-4
7,19,72,36,0,22.0,3.0,95,3,5,3,5,4,3,2,1,-3
8,20,81,41,9,25.0,1.0,105,4,14,8,2,2,9,5,1,-2
9,23,79,40,7,28.0,2.0,95,4,12,7,0,1,7,4,-1,-3
10,25,78,39,6,31.0,2.0,105,5,11,6,11,7,9,5,-1,-4
11,27,76,38,4,34.0,3.0,95,5,9,5,9,6,7,4,-1,-5
12,28,74,37,2,37.0,1.0,105,6,7,4,7,5,-2,-1,-1,-6
13,31,76,38,4,40.0,2.0,95,6,9,5,9,6,2,1,1,-5
14,33,71,35,11,43.0,1.0,105,7,4,2,4,3,-1,-1,-1,-6
15,36,71,35,11,46.0,2.0,95,7,4,2,4,3,-8,-5,0,-6
16,38,79,40,7,49.0,1.0,105,8,12,7,0,1,5,3,1,-5
17,41,78,39,6,52.0,2.0,95,8,11,6,11,7,7,4,-1,-6
18,43,76,38,4,55.0,2.0,105,9,9,5,9,6,9,5,-1,-7
19,45,74,37,2,58.0,3.0,95,9,7,4,7,5,7,4,-1,-8
20,46,62,30,2,61.0,1.0,105,10,-5,-3,7,5,-12,-7,-1,-9
21,49,74,37,2,64.0,1.0,95,10,7,4,7,5,3,2,1,-8
22,52,76,38,4,67.0,1.0,105,11,9,5,9,6,9,5,1,-7
23,55,64,31,4,70.0,3.0,95,11,-3,-2,9,6,-5,-3,-1,-8
24,56,76,38,4,73.0,1.0,105,12,9,5,9,6,12,7,1,-7
25,59,64,31,4,76.0,1.0,95,12,-3,-2,9,6,-3,-2,-1,-8
26,62,79,40,7,79.0,1.0,105,13,12,7,0,1,7,4,1,-7
27,65,67,33,7,82.0,1.0,95,13,0,0,0,1,-4,-2,-1,-8
28,68,78,39,6,85.0,1.0,105,14,11,6,11,7,4,2,1,-7
29,71,73,36,1,88.0,1.0,95,14,6,3,6,4,-1,-1,-1,-8
30,74,67,33,7,91.0,1.0,105,15,0,0,0,1,1,1,-1,-9
31,77,79,40,7,94.0,2.0,95,15,12,7,0,1,5,3,1,-8
32,81,79,40,7,97.0,2.0,105,16,12,7,0,1,1,1,0,-8
33,83,78,39,6,100.0,2.0,95,16,11,6,11,7,11,6,-1,-9
34,85,76,38,4,103.0,2.0,105,17,9,5,9,6,9,5,-1,-10
35,87,74,37,2,106.0,3.0,95,17,7,4,7,5,7,4,-1,-11
36,88,62,30,2,109.0,1.0,105,18,-5,-3,7,5,-12,-7,-1,-12
37,91,74,37,2,112.0,1.0,95,18,7,4,7,5,3,2,1,-11
38,94,62,30,2,115.0,1.0,105,19,-5,-3,7,5,-5,-3,-1,-12
39,97,72,36,0,118.0,3.0,95,19,5,3,5,4,3,2,1,-11
40,98,81,41,9,121.0,1.0,105,20,14,8,2,2,9,5,1,-10
41,101,79,40,7,124.0,2.0,95,20,12,7,0,1,7,4,-1,-11
42,103,78,39,6,127.0,2.0,105,21,11,6,11,7,9,5,-1,-12
43,105,76,38,4,130.0,3.0,95,21,9,5,9,6,7,4,-1,-13
44,106,74,37,2,133.0,1.0,105,22,7,4,7,5,-2,-1,-1,-14
45,109,76,38,4,136.0,2.0,95,22,9,5,9,6,2,1,1,-13
46,111,71,35,11,139.0,1.0,105,23,4,2,4,3,-1,-1,-1,-14
47,114,71,35,11,142.0,2.0,95,23,4,2,4,3,-8,-5,0,-14
48,116,79,40,7,145.0,1.0,105,24,12,7,0,1,5,3,1,-13
49,119,78,39,6,148.0,2.0,95,24,11,6,11,7,7,4,-1,-14
50,121,76,38,4,151.0,2.0,105,25,9,5,9,6,9,5,-1,-15
51,123,74,37,2,154.0,3.0,95,25,7,4,7,5,7,4,-1,-16
52,124,62,30,2,157.0,1.0,105,26,-5,-3,7,5,-12,-7,-1,-17
53,127,74,37,2,160.0,1.0,95,26,7,4,7,5,3,2,1,-16
54,130,76,38,4,163.0,1.0,105,27,9,5,9,6,9,5,1,-15
55,133,64,31,4,166.0,3.0,95,27,-3,-2,9,6,-5,-3,-1,-16
56,134,76,38,4,169.0,1.0,105,28,9,5,9,6,12,7,1,-15
57,137,64,31,4,172.0,1.0,95,28,-3,-2,9,6,-3,-2,-1,-16
58,140,79,40,7,175.0,1.0,105,29,12,7,0,1,7,4,1,-15
59,143,67,33,7,178.0,1.0,95,29,0,0,0,1,-4,-2,-1,-16
60,146,78,39,6,181.0,1.0,105,30,11,6,11,7,4,2,1,-15
61,149,73,36,1,184.0,1.0,95,30,6,3,6,4,-1,-1,-1,-16
62,152,67,33,7,187.0,1.0,105,31,0,0,0,1,1,1,-1,-17
63,155,79,40,7,190.0,2.0,95,31,12,7,0,1,5,3,1,-16
64,159,79,40,7,193.0,1.0,105,32,12,7,0,1,1,1,0,-16
65,162,78,39,6,196.0,1.0,95,32,11,6,11,7,7,4,-1,-17
66,165,76,38,4,199.0,1.0,105,33,9,5,9,6,5,3,-1,-18
67,168,74,37,2,202.0,1.0,95,33,7,4,7,5,3,2,-1,-19
68,171,76,38,4,205.0,1.0,105,34,9,5,9,6,5,3,1,-18
69,174,74,37,2,208.0,1.0,95,34,7,4,7,5,3,2,-1,-19
70,177,72,36,0,211.0,1.0,105,35,5,3,5,4,1,1,-1,-20
71,180,62,30,2,214.0,1.0,95,35,-5,-3,7,5,-4,-2,-1,-21
72,183,81,41,9,217.0,1.0,105,36,14,8,2,2,12,7,1,-20
73,186,79,40,7,220.0,1.0,95,36,12,7,0,1,7,4,-1,-21
74,189,78,39,6,223.0,1.0,105,37,11,6,11,7,6,3,-1,-22
75,192,76,38,4,226.0,1.0,95,37,9,5,9,6,4,2,-1,-23
76,195,74,37,2,229.0,1.0,105,38,7,4,7,5,2,1,-1,-24
77,198,75,38,3,232.0,1.0,95,38,8,5,8,6,1,1,1,-23
78,201,71,35,11,235.0,1.0,105,39,4,2,4,3,-1,-1,-1,-24
79,204,71,35,11,238.0,2.0,95,39,4,2,4,3,-8,-5,0,-24
80,206,79,40,7,241.0,1.0,105,40,12,7,0,1,5,3,1,-23
81,209,78,39,6,244.0,1.0,95,40,11,6,11,7,7,4,-1,-24
82,212,76,38,4,247.0,1.0,105,41,9,5,9,6,5,3,-1,-25
83,215,74,37,2,250.0,1.0,95,41,7,4,7,5,3,2,-1,-26
84,218,76,38,4,253.0,1.0,105,42,9,5,9,6,5,3,1,-25
85,221,74,37,2,256.0,1.0,95,42,7,4,7,5,3,2,-1,-26
86,224,76,38,4,259.0,1.0,105,43,9,5,9,6,5,3,1,-25
87,227,64,31,4,262.0,3.0,95,43,-3,-2,9,6,-5,-3,-1,-26
88,228,76,38,4,265.0,1.0,105,44,9,5,9,6,12,7,1,-25
89,231,64,31,4,268.0,1.0,95,44,-3,-2,9,6,-3,-2,-1,-26
90,234,79,40,7,271.0,1.0,105,45,12,7,0,1,7,4,1,-25
91,237,67,33,7,274.0,1.0,95,45,0,0,0,1,-4,-2,-1,-26
92,240,78,39,6,277.0,1.0,105,46,11,6,11,7,4,2,1,-25
93,243,73,36,1,280.0,1.0,95,46,6,3,6,4,-1,-1,-1,-26
94,246,67,33,7,283.0,1.0,105,47,0,0,0,1,1,1,-1,-27
95,249,79,40,7,286.0,2.0,95,47,12,7,0,1,5,3,1,-26
96,253,79,40,7,289.0,1.0,105,48,12,7,0,1,1,1,0,-26
97,256,78,39,6,292.0,1.0,95,48,11,6,11,7,7,4,-1,-27
98,259,76,38,4,295.0,1.0,105,49,9,5,9,6,5,3,-1,-28
99,262,74,37,2,298.0,1.0,95,49,7,4,7,5,3,2,-1,-29
100,265,76,38,4,301.0,1.0,105,50,9,5,9,6,5,3,1,-28
101,268,74,37,2,304.0,1.0,95,50,7,4,7,5,3,2,-1,-29
102,271,72,36,0,307.0,1.0,105,51,5,3,5,4,1,1,-1,-30
103,274,62,30,2,310.0,1.0,95,51,-5,-3,7,5,-4,-2,-1,-31
104,277,81,41,9,313.0,1.0,105,52,14,8,2,2,12,7,1,-30
105,280,79,40,7,316.0,1.0,95,52,12,7,0,1,7,4,-1,-31
106,283,78,39,6,319.0,1.0,105,53,11,6,11,7,6,3,-1,-32
107,286,76,38,4,322.0,1.0,95,53,9,5,9,6,4,2,-1,-33
108,289,74,37,2,325.0,1.0,105,54,7,4,7,5,2,1,-1,-34
109,292,75,38,3,328.0,1.0,95,54,8,5,8,6,1,1,1,-33
110,295,71,35,11,331.0,1.0,105,55,4,2,4,3,-1,-1,-1,-34
111,298,71,35,11,334.0,2.0,95,55,4,2,4,3,-8,-5,0,-34
112,300,79,40,7,337.0,1.0,105,56,12,7,0,1,5,3,1,-33
113,303,78,39,6,340.0,1.0,95,56,11,6,11,7,7,4,-1,-34
114,306,76,38,4,343.0,1.0,105,57,9,5,9,6,5,3,-1,-35
115,309,74,37,2,346.0,1.0,95,57,7,4,7,5,3,2,-1,-36
116,312,76,38,4,349.0,1.0,105,58,9,5,9,6,5,3,1,-35
117,315,74,37,2,352.0,1.0,95,58,7,4,7,5,3,2,-1,-36
118,318,76,38,4,355.0,1.0,105,59,9,5,9,6,5,3,1,-35
119,321,64,31,4,358.0,3.0,95,59,-3,-2,9,6,-5,-3,-1,-36
120,322,76,38,4,361.0,1.0,105,60,9,5,9,6,12,7,1,-35
121,325,64,31,4,364.0,1.0,95,60,-3,-2,9,6,-3,-2,-1,-36
122,328,79,40,7,367.0,1.0,105,61,12,7,0,1,7,4,1,-35
123,331,67,33,7,370.0,1.0,95,61,0,0,0,1,-4,-2,-1,-36
124,334,78,39,6,373.0,1.0,105,62,11,6,11,7,4,2,1,-35
125,337,73,36,1,376.0,1.0,95,62,6,3,6,4,-1,-1,-1,-36
126,340,67,33,7,379.0,1.0,105,63,0,0,0,1,1,1,-1,-37
127,343,79,40,7,382.0,2.0,95,63,12,7,0,1,5,3,1,-36
128,345,83,42,11,385.0,1.0,105,64,16,9,4,3,9,5,1,-35
129,348,81,41,9,388.0,1.0,95,64,14,8,2,2,10,6,-1,-36
130,351,79,40,7,391.0,1.0,105,65,12,7,0,1,12,7,-1,-37
131,354,78,39,6,394.0,1.0,95,65,11,6,11,7,7,4,-1,-38
132,357,76,38,4,397.0,1.0,105,66,9,5,9,6,5,3,-1,-39
133,360,74,37,2,400.0,1.0,95,66,7,4,7,5,3,2,-1,-40
134,363,72,36,0,403.0,1.0,105,67,5,3,5,4,1,1,-1,-41
135,366,62,30,2,406.0,1.0,95,67,-5,-3,7,5,-4,-2,-1,-42
136,369,81,41,9,409.0,1.0,105,68,14,8,2,2,12,7,1,-41
137,372,79,40,7,412.0,1.0,95,68,12,7,0,1,7,4,-1,-42
138,375,78,39,6,415.0,1.0,105,69,11,6,11,7,6,3,-1,-43
139,378,76,38,4,418.0,1.0,95,69,9,5,9,6,4,2,-1,-44
140,381,74,37,2,421.0,1.0,105,70,7,4,7,5,2,1,-1,-45
141,384,75,38,3,424.0,1.0,95,70,8,5,8,6,1,1,1,-44
142,387,71,35,11,427.0,1.0,105,71,4,2,4,3,-1,-1,-1,-45
143,390,71,35,11,430.0,2.0,95,71,4,2,4,3,-8,-5,0,-45
144,392,83,42,11,433.0,1.0,105,72,16,9,4,3,9,5,1,-44
145,395,81,41,9,436.0,1.0,95,72,14,8,2,2,10,6,-1,-45
146,398,79,40,7,439.0,1.0,105,73,12,7,0,1,12,7,-1,-46
147,401,78,39,6,442.0,1.0,95,73,11,6,11,7,7,4,-1,-47
148,404,76,38,4,445.0,1.0,105,74,9,5,9,6,5,3,-1,-48
149,407,74,37,2,448.0,1.0,95,74,7,4,7,5,3,2,-1,-49
150,410,76,38,4,451.0,1.0,105,75,9,5,9,6,5,3,1,-48
151,413,64,31,4,454.0,3.0,95,75,-3,-2,9,6,-5,-3,-1,-49
152,414,76,38,4,457.0,1.0,105,76,9,5,9,6,12,7,1,-48
153,417,64,31,4,460.0,1.0,95,76,-3,-2,9,6,-3,-2,-1,-49
154,420,79,40,7,463.0,1.0,105,77,12,7,0,1,7,4,1,-48
155,423,67,33,7,466.0,1.0,95,77,0,0,0,1,-4,-2,-1,-49
156,426,78,39,6,469.0,1.0,105,78,11,6,11,7,4,2,1,-48
157,429,73,36,1,472.0,1.0,95,78,6,3,6,4,-1,-1,-1,-49
158,432,67,33,7,475.0,1.0,105,79,0,0,0,1,1,1,-1,-50
159,435,79,40,7,478.0,2.0,95,79,12,7,0,1,5,3,1,-49
160,437,83,42,11,481.0,1.0,105,80,16,9,4,3,9,5,1,-48
161,440,81,41,9,484.0,1.0,95,80,14,8,2,2,10,6,-1,-49
162,443,79,40,7,487.0,1.0,105,81,12,7,0,1,12,7,-1,-50
163,446,78,39,6,490.0,1.0,95,81,11,6,11,7,7,4,-1,-51
164,449,76,38,4,493.0,1.0,105,82,9,5,9,6,5,3,-1,-52
165,452,74,37,2,496.0,1.0,95,82,7,4,7,5,3,2,-1,-53
166,455,72,36,0,499.0,1.0,105,83,5,3,5,4,1,1,-1,-54
167,458,62,30,2,502.0,1.0,95,83,-5,-3,7,5,-4,-2,-1,-55
168,461,81,41,9,505.0,1.0,105,84,14,8,2,2,12,7,1,-54
169,464,79,40,7,508.0,1.0,95,84,12,7,0,1,7,4,-1,-55
170,467,78,39,6,511.0,1.0,105,85,11,6,11,7,6,3,-1,-56
171,470,76,38,4,514.0,1.0,95,85,9,5,9,6,4,2,-1,-57
172,473,74,37,2,517.0,1.0,105,86,7,4,7,5,2,1,-1,-58
173,476,75,38,3,520.0,1.0,95,86,8,5,8,6,1,1,1,-57
174,479,71,35,11,523.0,1.0,105,87,4,2,4,3,-1,-1,-1,-58
175,482,71,35,11,526.0,2.0,95,87,4,2,4,3,-8,-5,0,-58
176,484,83,42,11,529.0,1.0,105,88,16,9,4,3,9,5,1,-57
177,487,81,41,9,532.0,1.0,95,88,14,8,2,2,10,6,-1,-58
178,490,79,40,7,535.0,1.0,105,89,12,7,0,1,12,7,-1,-59
179,493,78,39,6,538.0,1.0,95,89,11,6,11,7,7,4,-1,-60
180,496,76,38,4,541.0,1.0,105,90,9,5,9,6,5,3,-1,-61
181,499,74,37,2,544.0,1.0,95,90,7,4,7,5,3,2,-1,-62
182,502,76,38,4,547.0,1.0,105,91,9,5,9,6,5,3,1,-61
183,505,64,31,4,550.0,3.0,95,91,-3,-2,9,6,-5,-3,-1,-62
184,506,76,38,4,553.0,1.0,105,92,9,5,9,6,12,7,1,-61
185,509,64,31,4,556.0,1.0,95,92,-3,-2,9,6,-3,-2,-1,-62
186,512,79,40,7,559.0,1.0,105,93,12,7,0,1,7,4,1,-61
187,515,67,33,7,562.0,1.0,95,93,0,0,0,1,-4,-2,-1,-62
188,518,78,39,6,565.0,1.0,105,94,11,6,11,7,4,2,1,-61
189,521,73,36,1,568.0,1.0,95,94,6,3,6,4,-1,-1,-1,-62
190,524,67,33,7,571.0,1.0,105,95,0,0,0,1,1,1,-1,-63
191,527,79,40,7,574.0,2.0,95,95,12,7,0,1,5,3,1,-62
