,index,midi_note_num,diatonic_note_num,chromatic_pitch_class,onset,duration,velocity,bar_count,relative_chromatic_pitch,relative_diatonic_pitch,chromatic_scale_degree,diatonic_scale_degree,chromatic_interval,diatonic_interval,parsons_code,parsons_cumsum
0,0,62,30,2,0.0,1.0,105,0,-5,-3,7,5,0,0,0,0
1,3,71,35,11,3.0,1.0,95,0,4,2,4,3,2,1,1,1
2,8,72,36,0,6.0,1.0,105,1,5,3,5,4,1,1,1,2
3,11,74,37,2,9.0,1.0,95,1,7,4,7,5,2,1,1,3
4,16,62,30,2,12.0,1.0,105,2,-5,-3,7,5,-12,-7,-1,2
5,19,71,35,11,15.0,2.0,95,2,4,2,4,3,2,1,1,3
6,21,72,36,0,18.0,1.0,105,3,5,3,5,4,-2,-1,1,4
7,24,69,34,9,21.0,1.0,95,3,2,1,2,2,2,1,-1,3
8,27,62,30,2,24.0,1.0,105,4,-5,-3,7,5,-4,-2,-1,2
9,30,71,35,11,27.0,1.0,95,4,4,2,4,3,2,1,1,3
10,35,72,36,0,30.0,1.0,105,5,5,3,5,4,1,1,1,4
11,38,74,37,2,33.0,1.0,95,5,7,4,7,5,2,1,1,5
12,41,79,40,7,36.0,1.0,105,6,12,7,0,1,1,1,1,6
13,46,81,41,9,39.0,1.0,95,6,14,8,2,2,2,1,1,7
14,49,72,36,0,42.0,1.0,105,7,5,3,5,4,-2,-1,-1,6
15,52,67,33,7,45.0,2.0,95,7,0,0,0,1,1,1,-1,5
16,54,62,30,2,48.0,1.0,105,8,-5,-3,7,5,-2,-1,-1,4
17,57,71,35,11,51.0,1.0,95,8,4,2,4,3,2,1,1,5
18,62,72,36,0,54.0,1.0,105,9,5,3,5,4,1,1,1,6
19,65,74,37,2,57.0,1.0,95,9,7,4,7,5,2,1,1,7
20,70,62,30,2,60.0,1.0,105,10,-5,-3,7,5,-12,-7,-1,6
21,73,71,35,11,63.0,2.0,95,10,4,2,4,3,2,1,1,7
22,75,72,36,0,66.0,1.0,105,11,5,3,5,4,-2,-1,1,8
23,78,69,34,9,69.0,1.0,95,11,2,1,2,2,2,1,-1,7
24,81,62,30,2,72.0,1.0,105,12,-5,-3,7,5,-4,-2,-1,6
25,84,71,35,11,75.0,1.0,95,12,4,2,4,3,2,1,1,7
26,89,72,36,0,78.0,1.0,105,13,5,3,5,4,1,1,1,8
27,92,74,37,2,81.0,1.0,95,13,7,4,7,5,2,1,1,9
28,95,79,40,7,84.0,1.0,105,14,12,7,0,1,1,1,1,10
29,100,81,41,9,87.0,1.0,95,14,14,8,2,2,2,1,1,11
30,103,72,36,0,90.0,1.0,105,15,5,3,5,4,-2,-1,-1,10
31,106,67,33,7,93.0,2.0,95,15,0,0,0,1,1,1,-1,9
32,108,67,33,7,96.0,1.0,105,16,0,0,0,1,5,3,0,9
33,111,79,40,7,99.0,1.0,95,16,12,7,0,1,5,3,1,10
34,116,79,40,7,102.0,1.0,105,17,12,7,0,1,0,0,0,10
35,119,78,39,6,105.0,1.0,95,17,11,6,11,7,4,2,-1,9
36,124,74,37,2,108.0,1.0,105,18,7,4,7,5,-4,-2,-1,8
37,127,79,40,7,111.0,1.0,95,18,12,7,0,1,1,1,1,9
38,132,79,40,7,114.0,1.0,105,19,12,7,0,1,0,0,0,9
39,135,72,36,0,117.0,1.0,95,19,5,3,5,4,-2,-1,-1,8
40,138,67,33,7,120.0,1.0,105,20,0,0,0,1,1,1,-1,7
41,141,79,40,7,123.0,1.0,95,20,12,7,0,1,5,3,1,8
42,146,78,39,6,126.0,0.67,105,21,11,6,11,7,-1,-1,-1,7
43,150,78,39,6,129.0,1.0,95,21,11,6,11,7,-1,-1,0,7
44,153,81,41,9,132.0,1.0,105,22,14,8,2,2,0,0,1,8
45,156,81,41,9,135.0,1.0,95,22,14,8,2,2,2,1,0,8
46,159,72,36,0,138.0,1.0,105,23,5,3,5,4,-2,-1,-1,7
47,162,67,33,7,141.0,2.0,95,23,0,0,0,1,1,1,-1,6
48,164,67,33,7,144.0,1.0,105,24,0,0,0,1,5,3,0,6
49,167,79,40,7,147.0,1.0,95,24,12,7,0,1,5,3,1,7
50,172,79,40,7,150.0,1.0,105,25,12,7,0,1,0,0,0,7
51,175,78,39,6,153.0,1.0,95,25,11,6,11,7,4,2,-1,6
52,180,74,37,2,156.0,1.0,105,26,7,4,7,5,-4,-2,-1,5
53,183,79,40,7,159.0,1.0,95,26,12,7,0,1,1,1,1,6
54,188,79,40,7,162.0,1.0,105,27,12,7,0,1,0,0,0,6
55,191,72,36,0,165.0,1.0,95,27,5,3,5,4,-2,-1,-1,5
56,194,67,33,7,168.0,1.0,105,28,0,0,0,1,1,1,-1,4
57,197,79,40,7,171.0,1.0,95,28,12,7,0,1,5,3,1,5
58,202,78,39,6,174.0,0.67,105,29,11,6,11,7,-1,-1,-1,4
59,206,78,39,6,177.0,1.0,95,29,11,6,11,7,-1,-1,0,4
60,209,81,41,9,180.0,1.0,105,30,14,8,2,2,0,0,1,5
61,212,81,41,9,183.0,1.0,95,30,14,8,2,2,2,1,0,5
62,215,72,36,0,186.0,1.0,105,31,5,3,5,4,-2,-1,-1,4
63,218,67,33,7,189.0,2.0,95,31,0,0,0,1,1,1,-1,3
64,220,64,31,4,192.0,0.67,105,32,-3,-2,9,6,2,1,-1,2
65,224,69,34,9,195.0,2.0,95,32,2,1,2,2,0,0,1,3
66,226,71,35,11,198.0,1.0,105,33,4,2,4,3,-1,-1,1,4
67,229,72,36,0,201.0,1.0,95,33,5,3,5,4,5,3,1,5
68,232,64,31,4,204.0,0.67,105,34,-3,-2,9,6,-3,-2,-1,4
69,236,74,37,2,207.0,1.0,95,34,7,4,7,5,5,3,1,5
70,239,72,36,0,210.0,1.0,105,35,5,3,5,4,-2,-1,-1,4
71,242,67,33,7,213.0,2.0,95,35,0,0,0,1,1,1,-1,3
72,244,64,31,4,216.0,0.67,105,36,-3,-2,9,6,2,1,-1,2
73,248,72,36,0,219.0,1.0,95,36,5,3,5,4,3,2,1,3
74,251,69,34,9,222.0,1.0,105,37,2,1,2,2,2,1,-1,2
75,254,78,39,6,225.0,1.0,95,37,11,6,11,7,2,1,1,3
76,259,79,40,7,228.0,1.0,105,38,12,7,0,1,1,1,1,4
77,262,78,39,6,231.0,1.0,95,38,11,6,11,7,-1,-1,-1,3
78,265,72,36,0,234.0,1.0,105,39,5,3,5,4,-2,-1,-1,2
79,268,67,33,7,237.0,3.0,95,39,0,0,0,1,1,1,-1,1
