,index,midi_note_num,diatonic_note_num,chromatic_pitch_class,onset,duration,velocity,bar_count,relative_chromatic_pitch,relative_diatonic_pitch,chromatic_scale_degree,diatonic_scale_degree,chromatic_interval,diatonic_interval,parsons_code,parsons_cumsum
0,1,79,40,7,2.0,1.0,105,0,12,7,0,1,0,0,0,0
1,4,76,38,4,6.0,1.0,95,0,9,5,9,6,2,1,-1,-1
2,7,76,38,4,10.0,0.5,105,1,9,5,9,6,2,1,0,-1
3,11,74,37,2,14.0,2.0,95,1,7,4,7,5,-2,-1,-1,-2
4,14,71,35,11,18.0,1.0,105,2,4,2,4,3,-1,-1,-1,-3
5,18,72,36,0,22.0,1.0,95,2,5,3,5,4,1,1,1,-2
6,22,69,34,9,26.0,2.0,105,3,2,1,2,2,2,1,-1,-3
7,25,69,34,9,30.0,2.0,95,3,2,1,2,2,-2,-1,0,-3
8,27,79,40,7,34.0,1.0,105,4,12,7,0,1,5,3,1,-2
9,30,76,38,4,38.0,1.0,95,4,9,5,9,6,2,1,-1,-3
10,33,76,38,4,42.0,0.5,105,5,9,5,9,6,2,1,0,-3
11,37,74,37,2,46.0,2.0,95,5,7,4,7,5,-2,-1,-1,-4
12,40,71,35,11,50.0,1.0,105,6,4,2,4,3,-1,-1,-1,-5
13,44,72,36,0,54.0,1.0,95,6,5,3,5,4,1,1,1,-4
14,48,69,34,9,58.0,2.0,105,7,2,1,2,2,2,1,-1,-5
15,51,67,33,7,62.0,2.0,95,7,0,0,0,1,0,0,-1,-6
16,53,79,40,7,66.0,1.0,105,8,12,7,0,1,5,3,1,-5
17,56,76,38,4,70.0,1.0,95,8,9,5,9,6,2,1,-1,-6
18,59,76,38,4,74.0,0.5,105,9,9,5,9,6,2,1,0,-6
19,63,74,37,2,78.0,2.0,95,9,7,4,7,5,-2,-1,-1,-7
20,66,71,35,11,82.0,1.0,105,10,4,2,4,3,-1,-1,-1,-8
21,70,72,36,0,86.0,1.0,95,10,5,3,5,4,1,1,1,-7
22,74,69,34,9,90.0,2.0,105,11,2,1,2,2,2,1,-1,-8
23,77,69,34,9,94.0,2.0,95,11,2,1,2,2,-2,-1,0,-8
24,79,79,40,7,98.0,1.0,105,12,12,7,0,1,5,3,1,-7
25,82,76,38,4,102.0,1.0,95,12,9,5,9,6,2,1,-1,-8
26,85,76,38,4,106.0,0.5,105,13,9,5,9,6,2,1,0,-8
27,89,74,37,2,110.0,2.0,95,13,7,4,7,5,-2,-1,-1,-9
28,92,71,35,11,114.0,1.0,105,14,4,2,4,3,-1,-1,-1,-10
29,96,72,36,0,118.0,1.0,95,14,5,3,5,4,1,1,1,-9
30,100,69,34,9,122.0,2.0,105,15,2,1,2,2,2,1,-1,-10
31,103,67,33,7,126.0,2.0,95,15,0,0,0,1,0,0,-1,-11
32,106,69,34,9,130.0,2.0,105,16,2,1,2,2,2,1,1,-10
33,109,67,33,7,134.0,2.0,95,16,0,0,0,1,-4,-2,-1,-11
34,112,69,34,9,138.0,1.0,105,17,2,1,2,2,-2,-1,1,-10
35,116,74,37,2,142.0,2.0,95,17,7,4,7,5,3,2,1,-9
36,119,76,38,4,146.0,2.0,105,18,9,5,9,6,2,1,1,-8
37,122,76,38,4,150.0,1.0,95,18,9,5,9,6,2,1,0,-8
38,126,74,37,2,154.0,1.0,105,19,7,4,7,5,-2,-1,-1,-9
39,130,69,34,9,158.0,4.0,95,19,2,1,2,2,-2,-1,-1,-10
40,131,69,34,9,162.0,2.0,105,20,2,1,2,2,0,0,0,-10
41,134,67,33,7,166.0,2.0,95,20,0,0,0,1,-4,-2,-1,-11
42,137,69,34,9,170.0,1.0,105,21,2,1,2,2,-2,-1,1,-10
43,141,74,37,2,174.0,2.0,95,21,7,4,7,5,3,2,1,-9
44,144,76,38,4,178.0,2.0,105,22,9,5,9,6,2,1,1,-8
45,147,76,38,4,182.0,2.0,95,22,9,5,9,6,2,1,0,-8
46,150,76,38,4,186.0,1.0,105,23,9,5,9,6,2,1,0,-8
47,154,81,41,9,190.0,4.0,95,23,14,8,2,2,5,3,1,-7
48,155,81,41,9,194.0,2.0,105,24,14,8,2,2,0,0,0,-7
49,158,81,41,9,198.0,0.67,95,24,14,8,2,2,-2,-1,0,-7
50,163,76,38,4,202.0,2.0,105,25,9,5,9,6,-2,-1,-1,-8
51,165,74,37,2,206.0,4.0,95,25,7,4,7,5,-7,-4,-1,-9
52,166,76,38,4,210.0,2.0,105,26,9,5,9,6,2,1,1,-8
53,169,76,38,4,214.0,0.67,95,26,9,5,9,6,-2,-1,0,-8
54,173,71,35,11,218.0,2.0,105,27,4,2,4,3,-3,-2,-1,-9
55,175,69,34,9,222.0,2.0,95,27,2,1,2,2,-5,-3,-1,-10
56,178,67,33,7,226.0,2.0,105,28,0,0,0,1,-2,-1,-1,-11
57,180,77,39,5,230.0,6.0,95,28,10,6,10,7,10,6,1,-10
58,183,72,36,0,238.0,1.0,95,28,5,3,5,4,-2,-1,-1,-11
59,187,69,34,9,242.0,2.0,105,29,2,1,2,2,2,1,-1,-12
60,189,79,40,7,246.0,6.0,95,29,12,7,0,1,10,6,1,-11
61,193,74,37,2,254.0,1.0,95,29,7,4,7,5,-2,-1,-1,-12
62,197,81,41,9,258.0,2.0,105,30,14,8,2,2,2,1,1,-11
63,200,81,41,9,262.0,0.67,95,30,14,8,2,2,-2,-1,0,-11
64,205,76,38,4,266.0,2.0,105,31,9,5,9,6,-2,-1,-1,-12
65,207,74,37,2,270.0,2.0,95,31,7,4,7,5,-7,-4,-1,-13
66,209,78,39,6,274.0,1.0,105,32,11,6,11,7,-1,-1,1,-12
67,213,71,35,11,278.0,2.0,95,32,4,2,4,3,-1,-1,-1,-13
68,216,62,30,2,282.0,2.0,105,33,-5,-3,7,5,-5,-3,-1,-14
69,219,67,33,7,286.0,2.0,95,33,0,0,0,1,1,1,1,-13
