,index,midi_note_num,diatonic_note_num,chromatic_pitch_class,onset,duration,velocity,bar_count,relative_chromatic_pitch,relative_diatonic_pitch,chromatic_scale_degree,diatonic_scale_degree,chromatic_interval,diatonic_interval,parsons_code,parsons_cumsum
0,0,62,30,2,0.0,1.0,105,0,0,0,0,1,0,0,0,0
1,3,62,30,2,3.0,1.0,95,0,0,0,0,1,0,0,0,0
2,6,64,31,4,6.0,1.0,105,1,2,1,2,2,-2,-1,1,1
3,9,62,30,2,9.0,1.0,95,1,0,0,0,1,3,2,-1,0
4,12,62,30,2,12.0,1.0,105,2,0,0,0,1,5,3,0,0
5,16,62,30,2,15.0,1.0,95,2,0,0,0,1,0,0,0,0
6,19,69,34,9,18.0,1.0,105,3,7,4,7,5,3,2,1,1
7,22,65,32,5,21.0,1.0,95,3,3,2,3,3,-4,-2,-1,0
8,25,74,37,2,24.0,0.5,105,4,12,7,0,1,5,3,1,1
9,29,69,34,9,27.0,1.0,95,4,7,4,7,5,-2,-1,-1,0
10,32,66,32,6,30.0,0.5,105,5,4,2,4,3,2,1,-1,-1
11,36,59,28,11,33.0,1.0,95,5,-3,-2,9,6,-3,-2,-1,-2
12,39,62,30,2,36.0,1.0,105,6,0,0,0,1,5,3,1,-1
13,42,69,34,9,39.0,1.0,95,6,7,4,7,5,3,2,1,0
14,45,62,30,2,42.0,1.0,105,7,0,0,0,1,-2,-1,-1,-1
15,49,62,30,2,45.0,1.0,95,7,0,0,0,1,0,0,0,-1
16,52,62,30,2,48.0,1.0,105,8,0,0,0,1,-2,-1,0,-1
17,55,62,30,2,51.0,1.0,95,8,0,0,0,1,0,0,0,-1
18,58,64,31,4,54.0,1.0,105,9,2,1,2,2,-2,-1,1,0
19,61,62,30,2,57.0,1.0,95,9,0,0,0,1,3,2,-1,-1
20,64,62,30,2,60.0,1.0,105,10,0,0,0,1,5,3,0,-1
21,68,62,30,2,63.0,1.0,95,10,0,0,0,1,0,0,0,-1
22,71,69,34,9,66.0,1.0,105,11,7,4,7,5,3,2,1,0
23,74,65,32,5,69.0,1.0,95,11,3,2,3,3,-4,-2,-1,-1
24,77,74,37,2,72.0,0.5,105,12,12,7,0,1,5,3,1,0
25,81,69,34,9,75.0,1.0,95,12,7,4,7,5,-2,-1,-1,-1
26,84,66,32,6,78.0,1.0,105,13,4,2,4,3,2,1,-1,-2
27,87,59,28,11,81.0,1.0,95,13,-3,-2,9,6,-3,-2,-1,-3
28,90,62,30,2,84.0,1.0,105,14,0,0,0,1,5,3,1,-2
29,93,69,34,9,87.0,1.0,95,14,7,4,7,5,3,2,1,-1
30,96,62,30,2,90.0,1.0,105,15,0,0,0,1,-2,-1,-1,-2
31,100,62,30,2,93.0,1.0,95,15,0,0,0,1,0,0,0,-2
32,103,62,30,2,96.0,1.0,105,16,0,0,0,1,-11,-6,0,-2
33,106,79,40,7,99.0,1.0,95,16,17,10,5,4,-2,-1,1,-1
34,109,78,39,6,102.0,1.0,105,17,16,9,4,3,5,3,-1,-2
35,112,76,38,4,105.0,1.0,95,17,14,8,2,2,5,3,-1,-3
36,115,67,33,7,108.0,1.0,105,18,5,3,5,4,-2,-1,-1,-4
37,118,69,34,9,111.0,1.0,95,18,7,4,7,5,-2,-1,1,-3
38,122,74,37,2,114.0,1.0,105,19,12,7,0,1,1,1,1,-2
39,125,76,38,4,117.0,1.0,95,19,14,8,2,2,-2,-1,1,-1
40,128,81,41,9,120.0,1.0,105,20,19,11,7,5,12,7,1,0
41,132,81,41,9,123.0,1.0,95,20,19,11,7,5,0,0,0,0
42,135,79,40,7,126.0,1.0,105,21,17,10,5,4,1,1,-1,-1
43,139,79,40,7,129.0,1.0,95,21,17,10,5,4,0,0,0,-1
44,142,78,39,6,132.0,0.5,105,22,16,9,4,3,2,1,-1,-2
45,146,76,38,4,135.0,1.0,95,22,14,8,2,2,-2,-1,-1,-3
46,149,74,37,2,138.0,1.0,105,23,12,7,0,1,1,1,-1,-4
47,152,62,30,2,141.0,1.0,95,23,0,0,0,1,-4,-2,-1,-5
48,155,74,37,2,144.0,1.0,105,24,12,7,0,1,1,1,1,-4
49,158,79,40,7,147.0,1.0,95,24,17,10,5,4,-2,-1,1,-3
50,161,78,39,6,150.0,1.0,105,25,16,9,4,3,5,3,-1,-4
51,164,76,38,4,153.0,1.0,95,25,14,8,2,2,5,3,-1,-5
52,167,67,33,7,156.0,1.0,105,26,5,3,5,4,-2,-1,-1,-6
53,170,69,34,9,159.0,1.0,95,26,7,4,7,5,-2,-1,1,-5
54,174,74,37,2,162.0,1.0,105,27,12,7,0,1,1,1,1,-4
55,177,76,38,4,165.0,1.0,95,27,14,8,2,2,-2,-1,1,-3
56,180,81,41,9,168.0,1.0,105,28,19,11,7,5,12,7,1,-2
57,184,81,41,9,171.0,1.0,95,28,19,11,7,5,0,0,0,-2
58,187,79,40,7,174.0,0.5,105,29,17,10,5,4,1,1,-1,-3
59,191,79,40,7,177.0,1.0,95,29,17,10,5,4,0,0,0,-3
60,194,78,39,6,180.0,1.0,105,30,16,9,4,3,2,1,-1,-4
61,197,76,38,4,183.0,1.0,95,30,14,8,2,2,5,3,-1,-5
62,200,74,37,2,186.0,1.0,105,31,12,7,0,1,5,3,-1,-6
63,204,71,35,11,189.0,1.0,95,31,9,5,9,6,5,3,-1,-7
64,207,62,30,2,192.0,1.0,105,32,0,0,0,1,-2,-1,-1,-8
65,210,62,30,2,195.0,1.0,95,32,0,0,0,1,0,0,0,-8
66,213,64,31,4,198.0,1.0,105,33,2,1,2,2,-2,-1,1,-7
67,216,62,30,2,201.0,1.0,95,33,0,0,0,1,3,2,-1,-8
68,219,62,30,2,204.0,1.0,105,34,0,0,0,1,5,3,0,-8
69,223,62,30,2,207.0,1.0,95,34,0,0,0,1,0,0,0,-8
70,226,69,34,9,210.0,1.0,105,35,7,4,7,5,3,2,1,-7
71,229,65,32,5,213.0,1.0,95,35,3,2,3,3,-4,-2,-1,-8
72,232,74,37,2,216.0,0.5,105,36,12,7,0,1,5,3,1,-7
73,236,69,34,9,219.0,1.0,95,36,7,4,7,5,-2,-1,-1,-8
74,239,66,32,6,222.0,0.5,105,37,4,2,4,3,2,1,-1,-9
75,243,59,28,11,225.0,1.0,95,37,-3,-2,9,6,-3,-2,-1,-10
76,246,62,30,2,228.0,1.0,105,38,0,0,0,1,5,3,1,-9
77,249,69,34,9,231.0,1.0,95,38,7,4,7,5,3,2,1,-8
78,252,62,30,2,234.0,1.0,105,39,0,0,0,1,-2,-1,-1,-9
79,256,62,30,2,237.0,1.0,95,39,0,0,0,1,0,0,0,-9
80,259,62,30,2,240.0,1.0,105,40,0,0,0,1,-2,-1,0,-9
81,262,62,30,2,243.0,1.0,95,40,0,0,0,1,0,0,0,-9
82,265,64,31,4,246.0,1.0,105,41,2,1,2,2,-2,-1,1,-8
83,268,62,30,2,249.0,1.0,95,41,0,0,0,1,3,2,-1,-9
84,271,62,30,2,252.0,1.0,105,42,0,0,0,1,5,3,0,-9
85,275,62,30,2,255.0,1.0,95,42,0,0,0,1,0,0,0,-9
86,278,69,34,9,258.0,1.0,105,43,7,4,7,5,3,2,1,-8
87,281,65,32,5,261.0,1.0,95,43,3,2,3,3,-4,-2,-1,-9
88,284,74,37,2,264.0,1.0,105,44,12,7,0,1,5,3,1,-8
89,287,69,34,9,267.0,1.0,95,44,7,4,7,5,-2,-1,-1,-9
90,290,66,32,6,270.0,0.5,105,45,4,2,4,3,2,1,-1,-10
91,294,59,28,11,273.0,1.0,95,45,-3,-2,9,6,-3,-2,-1,-11
92,297,62,30,2,276.0,1.0,105,46,0,0,0,1,5,3,1,-10
93,300,69,34,9,279.0,1.0,95,46,7,4,7,5,3,2,1,-9
94,303,62,30,2,282.0,1.0,105,47,0,0,0,1,-2,-1,-1,-10
95,307,74,37,2,285.0,1.0,95,47,12,7,0,1,0,0,1,-9
96,310,62,30,2,288.0,1.0,105,48,0,0,0,1,-11,-6,-1,-10
97,313,79,40,7,291.0,1.0,95,48,17,10,5,4,-2,-1,1,-9
98,316,78,39,6,294.0,1.0,105,49,16,9,4,3,5,3,-1,-10
99,319,76,38,4,297.0,1.0,95,49,14,8,2,2,5,3,-1,-11
100,322,67,33,7,300.0,1.0,105,50,5,3,5,4,-2,-1,-1,-12
101,325,69,34,9,303.0,1.0,95,50,7,4,7,5,-2,-1,1,-11
102,329,74,37,2,306.0,1.0,105,51,12,7,0,1,1,1,1,-10
103,332,76,38,4,309.0,1.0,95,51,14,8,2,2,-2,-1,1,-9
104,335,62,30,2,312.0,1.0,105,52,0,0,0,1,-7,-4,-1,-10
105,338,81,41,9,315.0,1.0,95,52,19,11,7,5,0,0,1,-9
106,341,79,40,7,318.0,0.5,105,53,17,10,5,4,1,1,-1,-10
107,345,79,40,7,321.0,1.0,95,53,17,10,5,4,0,0,0,-10
108,348,78,39,6,324.0,0.5,105,54,16,9,4,3,2,1,-1,-11
109,352,76,38,4,327.0,1.0,95,54,14,8,2,2,-2,-1,-1,-12
110,355,74,37,2,330.0,1.0,105,55,12,7,0,1,1,1,-1,-13
111,358,62,30,2,333.0,1.0,95,55,0,0,0,1,-4,-2,-1,-14
112,362,74,37,2,336.0,1.0,105,56,12,7,0,1,1,1,1,-13
113,365,79,40,7,339.0,0.5,95,56,17,10,5,4,-2,-1,1,-12
114,369,78,39,6,342.0,0.5,105,57,16,9,4,3,2,1,-1,-13
115,373,76,38,4,345.0,1.0,95,57,14,8,2,2,2,1,-1,-14
116,376,67,33,7,348.0,1.0,105,58,5,3,5,4,-2,-1,-1,-15
117,379,69,34,9,351.0,1.0,95,58,7,4,7,5,-2,-1,1,-14
118,383,74,37,2,354.0,1.0,105,59,12,7,0,1,1,1,1,-13
119,386,76,38,4,357.0,1.0,95,59,14,8,2,2,-2,-1,1,-12
120,389,80,40,8,360.0,1.0,105,60,18,10,6,4,4,2,1,-11
121,392,81,41,9,363.0,1.0,95,60,19,11,7,5,0,0,1,-10
122,395,79,40,7,366.0,0.5,105,61,17,10,5,4,1,1,-1,-11
123,399,79,40,7,369.0,1.0,95,61,17,10,5,4,0,0,0,-11
124,402,78,39,6,372.0,1.0,105,62,16,9,4,3,2,1,-1,-12
125,405,76,38,4,375.0,1.0,95,62,14,8,2,2,5,3,-1,-13
126,408,74,37,2,378.0,1.0,105,63,12,7,0,1,5,3,-1,-14
127,411,71,35,11,381.0,1.0,95,63,9,5,9,6,5,3,-1,-15
128,414,62,30,2,384.0,1.0,105,64,0,0,0,1,-2,-1,-1,-16
129,417,62,30,2,387.0,1.0,95,64,0,0,0,1,0,0,0,-16
130,420,64,31,4,390.0,1.0,105,65,2,1,2,2,-2,-1,1,-15
131,423,62,30,2,393.0,1.0,95,65,0,0,0,1,3,2,-1,-16
132,426,62,30,2,396.0,1.0,105,66,0,0,0,1,5,3,0,-16
133,430,62,30,2,399.0,1.0,95,66,0,0,0,1,0,0,0,-16
134,433,69,34,9,402.0,1.0,105,67,7,4,7,5,3,2,1,-15
135,436,65,32,5,405.0,1.0,95,67,3,2,3,3,-4,-2,-1,-16
136,439,74,37,2,408.0,0.5,105,68,12,7,0,1,5,3,1,-15
137,443,74,37,2,411.0,1.0,95,68,12,7,0,1,0,0,0,-15
138,446,71,35,11,414.0,1.0,105,69,9,5,9,6,2,1,-1,-16
139,449,71,35,11,417.0,1.0,95,69,9,5,9,6,0,0,0,-16
140,452,69,34,9,420.0,1.0,105,70,7,4,7,5,3,2,-1,-17
141,455,62,30,2,423.0,1.0,95,70,0,0,0,1,0,0,-1,-18
142,458,62,30,2,426.0,1.0,105,71,0,0,0,1,-4,-2,0,-18
143,461,62,30,2,429.0,1.0,95,71,0,0,0,1,0,0,0,-18
144,464,62,30,2,432.0,1.0,105,72,0,0,0,1,-2,-1,0,-18
145,467,62,30,2,435.0,1.0,95,72,0,0,0,1,0,0,0,-18
146,470,64,31,4,438.0,1.0,105,73,2,1,2,2,-2,-1,1,-17
147,473,62,30,2,441.0,1.0,95,73,0,0,0,1,3,2,-1,-18
148,476,62,30,2,444.0,1.0,105,74,0,0,0,1,5,3,0,-18
149,480,62,30,2,447.0,1.0,95,74,0,0,0,1,0,0,0,-18
150,483,69,34,9,450.0,1.0,105,75,7,4,7,5,3,2,1,-17
151,486,65,32,5,453.0,1.0,95,75,3,2,3,3,-4,-2,-1,-18
152,489,74,37,2,456.0,1.0,105,76,12,7,0,1,5,3,1,-17
153,493,69,34,9,459.0,1.0,95,76,7,4,7,5,-2,-1,-1,-18
154,496,66,32,6,462.0,0.5,105,77,4,2,4,3,2,1,-1,-19
155,500,59,28,11,465.0,1.0,95,77,-3,-2,9,6,-3,-2,-1,-20
156,503,62,30,2,468.0,1.0,105,78,0,0,0,1,5,3,1,-19
157,506,69,34,9,471.0,1.0,95,78,7,4,7,5,3,2,1,-18
158,509,62,30,2,474.0,1.0,105,79,0,0,0,1,-2,-1,-1,-19
159,513,74,37,2,477.0,1.0,95,79,12,7,0,1,0,0,1,-18
160,516,62,30,2,480.0,1.0,105,80,0,0,0,1,-11,-6,-1,-19
161,519,79,40,7,483.0,0.5,95,80,17,10,5,4,-2,-1,1,-18
162,523,78,39,6,486.0,0.5,105,81,16,9,4,3,2,1,-1,-19
163,527,76,38,4,489.0,1.0,95,81,14,8,2,2,2,1,-1,-20
164,530,67,33,7,492.0,1.0,105,82,5,3,5,4,-2,-1,-1,-21
165,533,69,34,9,495.0,1.0,95,82,7,4,7,5,-2,-1,1,-20
166,537,74,37,2,498.0,1.0,105,83,12,7,0,1,1,1,1,-19
167,540,76,38,4,501.0,1.0,95,83,14,8,2,2,-2,-1,1,-18
168,543,81,41,9,504.0,1.0,105,84,19,11,7,5,12,7,1,-17
169,547,81,41,9,507.0,1.0,95,84,19,11,7,5,0,0,0,-17
170,550,79,40,7,510.0,0.5,105,85,17,10,5,4,1,1,-1,-18
171,554,79,40,7,513.0,1.0,95,85,17,10,5,4,0,0,0,-18
172,557,78,39,6,516.0,0.5,105,86,16,9,4,3,2,1,-1,-19
173,561,76,38,4,519.0,1.0,95,86,14,8,2,2,-2,-1,-1,-20
174,564,74,37,2,522.0,1.0,105,87,12,7,0,1,1,1,-1,-21
175,567,62,30,2,525.0,1.0,95,87,0,0,0,1,-4,-2,-1,-22
176,570,74,37,2,528.0,1.0,105,88,12,7,0,1,1,1,1,-21
177,573,79,40,7,531.0,1.0,95,88,17,10,5,4,-2,-1,1,-20
178,576,78,39,6,534.0,1.0,105,89,16,9,4,3,5,3,-1,-21
179,579,76,38,4,537.0,1.0,95,89,14,8,2,2,5,3,-1,-22
180,582,67,33,7,540.0,1.0,105,90,5,3,5,4,-2,-1,-1,-23
181,585,69,34,9,543.0,1.0,95,90,7,4,7,5,-2,-1,1,-22
182,589,74,37,2,546.0,1.0,105,91,12,7,0,1,1,1,1,-21
183,592,76,38,4,549.0,1.0,95,91,14,8,2,2,-2,-1,1,-20
184,595,80,40,8,552.0,1.0,105,92,18,10,6,4,11,6,1,-19
185,598,81,41,9,555.0,1.0,95,92,19,11,7,5,0,0,1,-18
186,601,79,40,7,558.0,0.5,105,93,17,10,5,4,1,1,-1,-19
187,605,79,40,7,561.0,1.0,95,93,17,10,5,4,0,0,0,-19
188,608,78,39,6,564.0,1.0,105,94,16,9,4,3,2,1,-1,-20
189,611,76,38,4,567.0,1.0,95,94,14,8,2,2,5,3,-1,-21
190,614,74,37,2,570.0,1.0,105,95,12,7,0,1,5,3,-1,-22
191,617,62,30,2,573.0,1.0,95,95,0,0,0,1,-4,-2,-1,-23
