,index,midi_note_num,diatonic_note_num,chromatic_pitch_class,onset,duration,velocity,bar_count,relative_chromatic_pitch,relative_diatonic_pitch,chromatic_scale_degree,diatonic_scale_degree,chromatic_interval,diatonic_interval,parsons_code,parsons_cumsum
0,0,69,34,9,0.0,2.0,105,0,2,1,2,2,0,0,0,0
1,2,76,38,4,4.0,2.0,95,0,9,5,9,6,0,0,1,1
2,5,74,37,2,8.0,2.0,105,1,7,4,7,5,3,2,-1,0
3,8,79,40,7,12.0,1.0,95,1,12,7,0,1,1,1,1,1
4,11,69,34,9,16.0,2.0,105,2,2,1,2,2,-12,-7,-1,0
5,13,76,38,4,20.0,2.0,95,2,9,5,9,6,0,0,1,1
6,16,79,40,7,24.0,2.0,105,3,12,7,0,1,8,5,1,2
7,19,71,35,11,28.0,2.0,95,3,4,2,4,3,-3,-2,-1,1
8,22,69,34,9,32.0,2.0,105,4,2,1,2,2,2,1,-1,0
9,24,76,38,4,36.0,2.0,95,4,9,5,9,6,0,0,1,1
10,27,74,37,2,40.0,2.0,105,5,7,4,7,5,3,2,-1,0
11,30,79,40,7,44.0,1.0,95,5,12,7,0,1,1,1,1,1
12,33,79,40,7,48.0,1.0,105,6,12,7,0,1,-2,-1,0,1
13,37,76,38,4,52.0,0.5,95,6,9,5,9,6,5,3,-1,0
14,42,76,38,4,56.0,1.0,105,7,9,5,9,6,2,1,0,0
15,46,69,34,9,60.0,3.0,95,7,2,1,2,2,-2,-1,-1,-1
16,48,69,34,9,64.0,2.0,105,8,2,1,2,2,2,1,0,-1
17,50,76,38,4,68.0,2.0,95,8,9,5,9,6,0,0,1,0
18,53,74,37,2,72.0,2.0,105,9,7,4,7,5,3,2,-1,-1
19,56,79,40,7,76.0,1.0,95,9,12,7,0,1,1,1,1,0
20,59,69,34,9,80.0,2.0,105,10,2,1,2,2,-12,-7,-1,-1
21,61,76,38,4,84.0,0.5,95,10,9,5,9,6,0,0,1,0
22,66,79,40,7,88.0,2.0,105,11,12,7,0,1,8,5,1,1
23,69,71,35,11,92.0,0.5,95,11,4,2,4,3,-3,-2,-1,0
24,74,69,34,9,96.0,2.0,105,12,2,1,2,2,2,1,-1,-1
25,76,76,38,4,100.0,2.0,95,12,9,5,9,6,0,0,1,0
26,79,74,37,2,104.0,2.0,105,13,7,4,7,5,3,2,-1,-1
27,82,79,40,7,108.0,1.0,95,13,12,7,0,1,1,1,1,0
28,85,79,40,7,112.0,1.0,105,14,12,7,0,1,-2,-1,0,0
29,89,79,40,7,116.0,2.0,95,14,12,7,0,1,8,5,0,0
30,92,71,35,11,120.0,2.0,105,15,4,2,4,3,-3,-2,-1,-1
31,94,69,34,9,124.0,2.0,95,15,2,1,2,2,0,0,-1,-2
32,96,81,41,9,128.0,2.0,95,15,14,8,2,2,12,7,1,-1
33,98,79,40,7,132.0,1.0,95,15,12,7,0,1,-2,-1,-1,-2
34,100,74,37,2,134.0,2.0,105,16,7,4,7,5,-2,-1,-1,-3
35,103,79,40,7,138.0,1.0,95,16,12,7,0,1,1,1,1,-2
36,106,69,34,9,142.0,2.0,105,17,2,1,2,2,-12,-7,-1,-3
37,108,81,41,9,146.0,2.0,95,17,14,8,2,2,0,0,1,-2
38,111,74,37,2,150.0,1.0,105,18,7,4,7,5,-2,-1,-1,-3
39,115,71,35,11,154.0,0.5,95,18,4,2,4,3,-3,-2,-1,-4
40,119,69,34,9,158.0,2.0,105,19,2,1,2,2,0,0,-1,-5
41,121,81,41,9,162.0,2.0,95,19,14,8,2,2,0,0,1,-4
42,124,74,37,2,166.0,2.0,105,20,7,4,7,5,-2,-1,-1,-5
43,127,79,40,7,170.0,1.0,95,20,12,7,0,1,1,1,1,-4
44,130,79,40,7,174.0,1.0,105,21,12,7,0,1,-2,-1,0,-4
45,134,79,40,7,178.0,2.0,95,21,12,7,0,1,8,5,0,-4
46,137,71,35,11,182.0,0.5,105,22,4,2,4,3,-3,-2,-1,-5
47,141,69,34,9,186.0,2.0,95,22,2,1,2,2,0,0,-1,-6
48,143,76,38,4,190.0,2.0,95,22,9,5,9,6,7,4,1,-5
49,145,74,37,2,194.0,1.0,95,22,7,4,7,5,-2,-1,-1,-6
50,147,74,37,2,196.0,2.0,105,23,7,4,7,5,3,2,0,-6
51,150,79,40,7,200.0,1.0,95,23,12,7,0,1,1,1,1,-5
52,153,69,34,9,204.0,2.0,105,24,2,1,2,2,-12,-7,-1,-6
53,155,76,38,4,208.0,2.0,95,24,9,5,9,6,0,0,1,-5
54,158,79,40,7,212.0,2.0,105,25,12,7,0,1,8,5,1,-4
55,161,71,35,11,216.0,2.0,95,25,4,2,4,3,-3,-2,-1,-5
56,164,69,34,9,220.0,2.0,105,26,2,1,2,2,2,1,-1,-6
57,166,76,38,4,224.0,2.0,95,26,9,5,9,6,0,0,1,-5
58,169,74,37,2,228.0,2.0,105,27,7,4,7,5,3,2,-1,-6
59,172,79,40,7,232.0,1.0,95,27,12,7,0,1,1,1,1,-5
60,175,79,40,7,236.0,1.0,105,28,12,7,0,1,-2,-1,0,-5
61,179,76,38,4,240.0,0.5,95,28,9,5,9,6,5,3,-1,-6
62,184,76,38,4,244.0,1.0,105,29,9,5,9,6,2,1,0,-6
63,188,69,34,9,248.0,3.0,95,29,2,1,2,2,-2,-1,-1,-7
64,190,69,34,9,252.0,2.0,105,30,2,1,2,2,2,1,0,-7
65,192,76,38,4,256.0,2.0,95,30,9,5,9,6,0,0,1,-6
66,195,74,37,2,260.0,2.0,105,31,7,4,7,5,3,2,-1,-7
67,198,79,40,7,264.0,1.0,95,31,12,7,0,1,1,1,1,-6
68,201,69,34,9,268.0,2.0,105,32,2,1,2,2,-12,-7,-1,-7
69,203,76,38,4,272.0,0.5,95,32,9,5,9,6,0,0,1,-6
70,208,79,40,7,276.0,2.0,105,33,12,7,0,1,8,5,1,-5
71,211,71,35,11,280.0,0.5,95,33,4,2,4,3,-3,-2,-1,-6
72,216,69,34,9,284.0,2.0,105,34,2,1,2,2,2,1,-1,-7
73,218,76,38,4,288.0,2.0,95,34,9,5,9,6,0,0,1,-6
74,221,74,37,2,292.0,2.0,105,35,7,4,7,5,3,2,-1,-7
75,224,79,40,7,296.0,1.0,95,35,12,7,0,1,1,1,1,-6
76,227,79,40,7,300.0,1.0,105,36,12,7,0,1,-2,-1,0,-6
77,231,79,40,7,304.0,2.0,95,36,12,7,0,1,8,5,0,-6
78,234,71,35,11,308.0,2.0,105,37,4,2,4,3,-3,-2,-1,-7
79,236,69,34,9,312.0,2.0,95,37,2,1,2,2,0,0,-1,-8
80,238,81,41,9,316.0,2.0,95,37,14,8,2,2,12,7,1,-7
81,240,79,40,7,320.0,1.0,95,37,12,7,0,1,-2,-1,-1,-8
82,242,74,37,2,322.0,2.0,105,38,7,4,7,5,-2,-1,-1,-9
83,245,79,40,7,326.0,1.0,95,38,12,7,0,1,1,1,1,-8
84,248,69,34,9,330.0,2.0,105,39,2,1,2,2,-12,-7,-1,-9
85,250,81,41,9,334.0,2.0,95,39,14,8,2,2,0,0,1,-8
86,253,74,37,2,338.0,1.0,105,40,7,4,7,5,-2,-1,-1,-9
87,257,71,35,11,342.0,0.5,95,40,4,2,4,3,-3,-2,-1,-10
88,261,69,34,9,346.0,2.0,105,41,2,1,2,2,0,0,-1,-11
89,263,81,41,9,350.0,2.0,95,41,14,8,2,2,0,0,1,-10
90,266,74,37,2,354.0,2.0,105,42,7,4,7,5,-2,-1,-1,-11
91,269,79,40,7,358.0,1.0,95,42,12,7,0,1,1,1,1,-10
92,272,79,40,7,362.0,1.0,105,43,12,7,0,1,-2,-1,0,-10
93,276,79,40,7,366.0,2.0,95,43,12,7,0,1,8,5,0,-10
94,279,71,35,11,370.0,0.5,105,44,4,2,4,3,-3,-2,-1,-11
95,283,69,34,9,374.0,2.0,95,44,2,1,2,2,0,0,-1,-12
96,285,76,38,4,378.0,2.0,95,44,9,5,9,6,7,4,1,-11
97,287,74,37,2,382.0,1.0,95,44,7,4,7,5,-2,-1,-1,-12
98,289,74,37,2,384.0,2.0,105,45,7,4,7,5,3,2,0,-12
99,292,79,40,7,388.0,1.0,95,45,12,7,0,1,1,1,1,-11
100,295,69,34,9,392.0,2.0,105,46,2,1,2,2,-12,-7,-1,-12
101,297,76,38,4,396.0,2.0,95,46,9,5,9,6,0,0,1,-11
102,300,74,37,2,400.0,2.0,105,47,7,4,7,5,3,2,-1,-12
103,303,71,35,11,404.0,2.0,95,47,4,2,4,3,-3,-2,-1,-13
104,305,69,34,9,408.0,2.0,105,48,2,1,2,2,0,0,-1,-14
105,307,76,38,4,412.0,2.0,95,48,9,5,9,6,0,0,1,-13
106,310,74,37,2,416.0,2.0,105,49,7,4,7,5,3,2,-1,-14
107,313,79,40,7,420.0,1.0,95,49,12,7,0,1,1,1,1,-13
108,316,79,40,7,424.0,1.0,105,50,12,7,0,1,-2,-1,0,-13
109,320,79,40,7,428.0,2.0,95,50,12,7,0,1,8,5,0,-13
110,323,71,35,11,432.0,2.0,105,51,4,2,4,3,-3,-2,-1,-14
111,325,69,34,9,436.0,2.0,95,51,2,1,2,2,0,0,-1,-15
112,328,69,34,9,440.0,2.0,105,52,2,1,2,2,2,1,0,-15
113,330,76,38,4,444.0,2.0,95,52,9,5,9,6,0,0,1,-14
114,333,74,37,2,448.0,2.0,105,53,7,4,7,5,3,2,-1,-15
115,336,79,40,7,452.0,1.0,95,53,12,7,0,1,1,1,1,-14
116,339,69,34,9,456.0,2.0,105,54,2,1,2,2,-12,-7,-1,-15
117,341,76,38,4,460.0,2.0,95,54,9,5,9,6,0,0,1,-14
118,344,79,40,7,464.0,2.0,105,55,12,7,0,1,8,5,1,-13
119,347,71,35,11,468.0,2.0,95,55,4,2,4,3,-3,-2,-1,-14
120,350,69,34,9,472.0,2.0,105,56,2,1,2,2,2,1,-1,-15
121,352,76,38,4,476.0,2.0,95,56,9,5,9,6,0,0,1,-14
122,355,74,37,2,480.0,2.0,105,57,7,4,7,5,3,2,-1,-15
123,358,79,40,7,484.0,1.0,95,57,12,7,0,1,1,1,1,-14
124,361,79,40,7,488.0,1.0,105,58,12,7,0,1,-2,-1,0,-14
125,365,79,40,7,492.0,2.0,95,58,12,7,0,1,8,5,0,-14
126,368,71,35,11,496.0,2.0,105,59,4,2,4,3,-3,-2,-1,-15
127,370,69,34,9,500.0,2.0,95,59,2,1,2,2,0,0,-1,-16
128,372,81,41,9,504.0,2.0,95,59,14,8,2,2,12,7,1,-15
129,374,79,40,7,508.0,1.0,95,59,12,7,0,1,-2,-1,-1,-16
130,376,74,37,2,510.0,2.0,105,60,7,4,7,5,-2,-1,-1,-17
131,379,79,40,7,514.0,1.0,95,60,12,7,0,1,1,1,1,-16
132,382,69,34,9,518.0,2.0,105,61,2,1,2,2,-12,-7,-1,-17
133,384,81,41,9,522.0,2.0,95,61,14,8,2,2,0,0,1,-16
134,387,74,37,2,526.0,1.0,105,62,7,4,7,5,-2,-1,-1,-17
135,391,71,35,11,530.0,0.5,95,62,4,2,4,3,-3,-2,-1,-18
136,395,69,34,9,534.0,2.0,105,63,2,1,2,2,0,0,-1,-19
137,397,81,41,9,538.0,2.0,95,63,14,8,2,2,0,0,1,-18
138,400,74,37,2,542.0,2.0,105,64,7,4,7,5,-2,-1,-1,-19
139,403,79,40,7,546.0,1.0,95,64,12,7,0,1,1,1,1,-18
140,406,79,40,7,550.0,1.0,105,65,12,7,0,1,-2,-1,0,-18
141,410,79,40,7,554.0,2.0,95,65,12,7,0,1,8,5,0,-18
142,413,71,35,11,558.0,0.5,105,66,4,2,4,3,-3,-2,-1,-19
143,417,69,34,9,562.0,2.0,95,66,2,1,2,2,0,0,-1,-20
144,419,81,41,9,566.0,2.0,95,66,14,8,2,2,12,7,1,-19
145,421,79,40,7,570.0,1.0,95,66,12,7,0,1,-2,-1,-1,-20
146,423,74,37,2,572.0,2.0,105,67,7,4,7,5,-2,-1,-1,-21
147,426,79,40,7,576.0,1.0,95,67,12,7,0,1,1,1,1,-20
148,429,69,34,9,580.0,2.0,105,68,2,1,2,2,-12,-7,-1,-21
149,431,81,41,9,584.0,2.0,95,68,14,8,2,2,0,0,1,-20
150,434,74,37,2,588.0,1.0,105,69,7,4,7,5,-2,-1,-1,-21
151,438,71,35,11,592.0,0.5,95,69,4,2,4,3,-3,-2,-1,-22
152,442,69,34,9,596.0,2.0,105,70,2,1,2,2,0,0,-1,-23
153,444,81,41,9,600.0,2.0,95,70,14,8,2,2,0,0,1,-22
154,447,74,37,2,604.0,2.0,105,71,7,4,7,5,-2,-1,-1,-23
155,450,79,40,7,608.0,1.0,95,71,12,7,0,1,1,1,1,-22
156,453,79,40,7,612.0,1.0,105,72,12,7,0,1,-2,-1,0,-22
157,457,79,40,7,616.0,2.0,95,72,12,7,0,1,8,5,0,-22
158,460,71,35,11,620.0,0.5,105,73,4,2,4,3,-3,-2,-1,-23
159,464,69,34,9,624.0,2.0,95,73,2,1,2,2,0,0,-1,-24
160,466,76,38,4,628.0,2.0,95,73,9,5,9,6,7,4,1,-23
161,468,74,37,2,632.0,1.0,95,73,7,4,7,5,-2,-1,-1,-24
162,470,74,37,2,634.0,2.0,105,74,7,4,7,5,3,2,0,-24
163,473,79,40,7,638.0,1.0,95,74,12,7,0,1,1,1,1,-23
164,476,69,34,9,642.0,2.0,105,75,2,1,2,2,-12,-7,-1,-24
165,478,76,38,4,646.0,2.0,95,75,9,5,9,6,0,0,1,-23
166,481,79,40,7,650.0,2.0,105,76,12,7,0,1,8,5,1,-22
167,484,71,35,11,654.0,2.0,95,76,4,2,4,3,-3,-2,-1,-23
168,487,69,34,9,658.0,2.0,105,77,2,1,2,2,2,1,-1,-24
169,489,76,38,4,662.0,2.0,95,77,9,5,9,6,0,0,1,-23
170,492,74,37,2,666.0,2.0,105,78,7,4,7,5,3,2,-1,-24
171,495,79,40,7,670.0,1.0,95,78,12,7,0,1,1,1,1,-23
172,498,79,40,7,674.0,1.0,105,79,12,7,0,1,-2,-1,0,-23
173,502,76,38,4,678.0,2.0,95,79,9,5,9,6,5,3,-1,-24
174,505,76,38,4,682.0,1.0,105,80,9,5,9,6,2,1,0,-24
175,509,69,34,9,686.0,3.0,95,80,2,1,2,2,-2,-1,-1,-25
