,index,midi_note_num,diatonic_note_num,chromatic_pitch_class,onset,duration,velocity,bar_count,relative_chromatic_pitch,relative_diatonic_pitch,chromatic_scale_degree,diatonic_scale_degree,chromatic_interval,diatonic_interval,parsons_code,parsons_cumsum
0,1,69,34,9,1.0,1.0,105,0,0,0,0,1,0,0,0,0
1,4,81,41,9,4.0,1.0,95,0,12,7,0,1,5,3,1,1
2,7,76,38,4,7.0,1.0,105,1,7,4,7,5,-2,-1,-1,0
3,10,76,38,4,10.0,1.0,95,1,7,4,7,5,0,0,0,0
4,13,69,34,9,13.0,1.0,105,2,0,0,0,1,0,0,-1,-1
5,16,81,41,9,16.0,1.0,95,2,12,7,0,1,5,3,1,0
6,19,74,37,2,19.0,1.0,105,3,5,3,5,4,1,1,-1,-1
7,22,71,35,11,22.0,1.0,95,3,2,1,2,2,-3,-2,-1,-2
8,25,69,34,9,25.0,1.0,105,4,0,0,0,1,5,3,-1,-3
9,28,81,41,9,28.0,1.0,95,4,12,7,0,1,5,3,1,-2
10,31,76,38,4,31.0,1.0,105,5,7,4,7,5,-2,-1,-1,-3
11,34,76,38,4,34.0,1.0,95,5,7,4,7,5,0,0,0,-3
12,37,81,41,9,37.0,1.0,105,6,12,7,0,1,1,1,1,-2
13,40,76,38,4,40.0,1.0,95,6,7,4,7,5,-2,-1,-1,-3
14,43,71,35,11,43.0,1.0,105,7,2,1,2,2,2,1,-1,-4
15,46,71,35,11,46.0,1.0,95,7,2,1,2,2,0,0,0,-4
16,49,71,35,11,49.0,1.0,105,8,2,1,2,2,7,4,0,-4
17,50,69,34,9,50.0,1.0,105,9,0,0,0,1,-2,-1,-1,-5
18,53,81,41,9,53.0,1.0,95,9,12,7,0,1,5,3,1,-4
19,56,76,38,4,56.0,1.0,105,10,7,4,7,5,-2,-1,-1,-5
20,59,76,38,4,59.0,1.0,95,10,7,4,7,5,0,0,0,-5
21,62,69,34,9,62.0,1.0,105,11,0,0,0,1,0,0,-1,-6
22,65,81,41,9,65.0,1.0,95,11,12,7,0,1,5,3,1,-5
23,68,74,37,2,68.0,1.0,105,12,5,3,5,4,1,1,-1,-6
24,71,71,35,11,71.0,1.0,95,12,2,1,2,2,-3,-2,-1,-7
25,74,69,34,9,74.0,1.0,105,13,0,0,0,1,5,3,-1,-8
26,77,81,41,9,77.0,1.0,95,13,12,7,0,1,5,3,1,-7
27,80,76,38,4,80.0,1.0,105,14,7,4,7,5,-2,-1,-1,-8
28,83,76,38,4,83.0,1.0,95,14,7,4,7,5,0,0,0,-8
29,86,81,41,9,86.0,1.0,105,15,12,7,0,1,1,1,1,-7
30,89,76,38,4,89.0,1.0,95,15,7,4,7,5,-2,-1,-1,-8
31,92,71,35,11,92.0,1.0,105,16,2,1,2,2,2,1,-1,-9
32,95,71,35,11,95.0,1.0,95,16,2,1,2,2,0,0,0,-9
33,98,73,36,1,98.0,1.0,105,17,4,2,4,3,9,5,1,-8
34,101,73,36,1,101.0,1.0,95,17,4,2,4,3,-8,-5,0,-8
35,104,76,38,4,104.0,1.0,105,18,7,4,7,5,-5,-3,1,-7
36,107,76,38,4,107.0,1.0,95,18,7,4,7,5,-5,-3,0,-7
37,110,71,35,11,110.0,1.0,105,19,2,1,2,2,2,1,-1,-8
38,113,71,35,11,113.0,1.0,95,19,2,1,2,2,-5,-3,0,-8
39,116,68,33,8,116.0,1.0,105,20,-1,-1,11,7,-8,-5,-1,-9
40,119,71,35,11,119.0,1.0,95,20,2,1,2,2,-5,-3,1,-8
41,122,76,38,4,122.0,1.0,105,21,7,4,7,5,12,7,1,-7
42,125,76,38,4,125.0,1.0,95,21,7,4,7,5,-5,-3,0,-7
43,128,76,38,4,128.0,1.0,105,22,7,4,7,5,-5,-3,0,-7
44,131,76,38,4,131.0,1.0,95,22,7,4,7,5,0,0,0,-7
45,134,81,41,9,134.0,1.0,105,23,12,7,0,1,1,1,1,-6
46,137,76,38,4,137.0,1.0,95,23,7,4,7,5,-2,-1,-1,-7
47,140,71,35,11,140.0,1.0,105,24,2,1,2,2,2,1,-1,-8
48,143,71,35,11,143.0,1.0,95,24,2,1,2,2,0,0,0,-8
49,146,69,34,9,146.0,1.0,105,25,0,0,0,1,5,3,-1,-9
50,149,57,27,9,149.0,1.0,95,25,-12,-7,0,1,-4,-2,-1,-10
51,152,69,34,9,152.0,1.0,105,26,0,0,0,1,5,3,1,-9
52,155,64,31,4,155.0,1.0,95,26,-5,-3,7,5,3,2,-1,-10
53,158,71,35,11,158.0,1.0,105,27,2,1,2,2,-2,-1,1,-9
54,161,59,28,11,161.0,1.0,95,27,-10,-6,2,2,-5,-3,-1,-10
55,164,71,35,11,164.0,1.0,105,28,2,1,2,2,3,2,1,-9
56,167,74,37,2,167.0,1.0,95,28,5,3,5,4,10,6,1,-8
57,170,76,38,4,170.0,1.0,105,29,7,4,7,5,5,3,1,-7
58,173,64,31,4,173.0,1.0,95,29,-5,-3,7,5,-5,-3,-1,-8
59,176,76,38,4,176.0,1.0,105,30,7,4,7,5,3,2,1,-7
60,179,81,41,9,179.0,1.0,95,30,12,7,0,1,12,7,1,-6
61,182,76,38,4,182.0,1.0,105,31,7,4,7,5,-2,-1,-1,-7
62,185,74,37,2,185.0,1.0,95,31,5,3,5,4,-2,-1,-1,-8
63,188,73,36,1,188.0,1.0,105,32,4,2,4,3,2,1,-1,-9
64,191,69,34,9,191.0,2.0,95,32,0,0,0,1,0,0,-1,-10
65,192,69,34,9,193.0,1.0,105,33,0,0,0,1,0,0,0,-10
66,195,57,27,9,196.0,1.0,95,33,-12,-7,0,1,-4,-2,-1,-11
67,198,69,34,9,199.0,1.0,105,34,0,0,0,1,5,3,1,-10
68,201,64,31,4,202.0,1.0,95,34,-5,-3,7,5,3,2,-1,-11
69,204,71,35,11,205.0,1.0,105,35,2,1,2,2,-2,-1,1,-10
70,207,59,28,11,208.0,1.0,95,35,-10,-6,2,2,-5,-3,-1,-11
71,210,71,35,11,211.0,1.0,105,36,2,1,2,2,3,2,1,-10
72,213,74,37,2,214.0,1.0,95,36,5,3,5,4,10,6,1,-9
73,216,76,38,4,217.0,1.0,105,37,7,4,7,5,5,3,1,-8
74,219,64,31,4,220.0,1.0,95,37,-5,-3,7,5,-5,-3,-1,-9
75,222,76,38,4,223.0,1.0,105,38,7,4,7,5,3,2,1,-8
76,225,81,41,9,226.0,1.0,95,38,12,7,0,1,12,7,1,-7
77,228,76,38,4,229.0,1.0,105,39,7,4,7,5,-2,-1,-1,-8
78,231,74,37,2,232.0,1.0,95,39,5,3,5,4,-2,-1,-1,-9
79,234,73,36,1,235.0,1.0,105,40,4,2,4,3,2,1,-1,-10
80,237,69,34,9,238.0,2.0,95,40,0,0,0,1,0,0,-1,-11
