,index,midi_note_num,diatonic_note_num,chromatic_pitch_class,onset,duration,velocity,bar_count,relative_chromatic_pitch,relative_diatonic_pitch,chromatic_scale_degree,diatonic_scale_degree,chromatic_interval,diatonic_interval,parsons_code,parsons_cumsum
0,0,73,36,1,0.0,1.5,105,0,4,2,4,3,0,0,0,0
1,3,66,32,6,3.0,1.0,95,0,-3,-2,9,6,2,1,-1,-1
2,6,64,31,4,6.0,1.5,105,1,-5,-3,7,5,3,2,-1,-2
3,9,76,38,4,9.0,1.0,95,1,7,4,7,5,3,2,1,-1
4,12,74,37,2,12.0,1.5,105,2,5,3,5,4,5,3,-1,-2
5,15,76,38,4,15.0,1.0,95,2,7,4,7,5,-2,-1,1,-1
6,18,73,36,1,18.0,1.5,105,3,4,2,4,3,0,0,-1,-2
7,21,71,35,11,21.0,1.0,95,3,2,1,2,2,0,0,-1,-3
8,24,73,36,1,24.0,1.5,105,4,4,2,4,3,-1,-1,1,-2
9,27,76,38,4,27.0,1.0,95,4,7,4,7,5,-5,-3,1,-1
10,30,74,37,2,30.0,1.5,105,5,5,3,5,4,5,3,-1,-2
11,33,76,38,4,33.0,1.0,95,5,7,4,7,5,-5,-3,1,-1
12,36,76,38,4,36.0,1.5,105,6,7,4,7,5,7,4,0,-1
13,39,76,38,4,39.0,1.0,95,6,7,4,7,5,3,2,0,-1
14,42,81,41,9,42.0,1.5,105,7,12,7,0,1,1,1,1,0
15,45,69,34,9,45.0,1.0,95,7,0,0,0,1,-4,-2,-1,-1
16,48,64,31,4,48.0,1.0,95,7,-5,-3,7,5,-5,-3,-1,-2
17,51,61,29,1,51.0,1.0,95,7,-8,-5,4,3,-3,-2,-1,-3
18,52,64,31,4,52.0,1.5,105,8,-5,-3,7,5,3,2,1,-2
19,55,76,38,4,55.0,1.0,95,8,7,4,7,5,3,2,1,-1
20,58,74,37,2,58.0,1.5,105,9,5,3,5,4,5,3,-1,-2
21,61,76,38,4,61.0,1.0,95,9,7,4,7,5,-2,-1,1,-1
22,64,73,36,1,64.0,1.5,105,10,4,2,4,3,0,0,-1,-2
23,67,71,35,11,67.0,1.0,95,10,2,1,2,2,0,0,-1,-3
24,70,73,36,1,70.0,1.5,105,11,4,2,4,3,-1,-1,1,-2
25,73,76,38,4,73.0,1.0,95,11,7,4,7,5,-5,-3,1,-1
26,76,74,37,2,76.0,1.5,105,12,5,3,5,4,5,3,-1,-2
27,79,76,38,4,79.0,1.0,95,12,7,4,7,5,-5,-3,1,-1
28,82,76,38,4,82.0,1.5,105,13,7,4,7,5,7,4,0,-1
29,85,76,38,4,85.0,1.0,95,13,7,4,7,5,3,2,0,-1
30,88,81,41,9,88.0,1.5,105,14,12,7,0,1,1,1,1,0
31,91,69,34,9,91.0,1.0,95,14,0,0,0,1,-4,-2,-1,-1
32,94,81,41,9,94.0,1.0,95,14,12,7,0,1,0,0,1,0
33,97,78,39,6,97.0,1.0,95,14,9,5,9,6,-2,-1,-1,-1
34,98,76,38,4,98.0,1.0,105,15,7,4,7,5,-2,-1,-1,-2
35,101,69,34,9,101.0,1.0,95,15,0,0,0,1,0,0,-1,-3
36,104,78,39,6,104.0,1.5,105,16,9,5,9,6,2,1,1,-2
37,107,83,42,11,107.0,2.0,95,16,14,8,2,2,0,0,1,-1
38,109,80,40,8,110.0,1.5,105,17,11,6,11,7,-1,-1,-1,-2
39,112,76,38,4,113.0,1.0,95,17,7,4,7,5,0,0,-1,-3
40,115,81,41,9,116.0,1.5,105,18,12,7,0,1,1,1,1,-2
41,118,80,40,8,119.0,1.0,95,18,11,6,11,7,-1,-1,-1,-3
42,121,78,39,6,122.0,1.0,105,19,9,5,9,6,-2,-1,-1,-4
43,124,76,38,4,125.0,1.0,95,19,7,4,7,5,-2,-1,-1,-5
44,127,74,37,2,128.0,1.5,105,20,5,3,5,4,5,3,-1,-6
45,130,76,38,4,131.0,1.0,95,20,7,4,7,5,-2,-1,1,-5
46,133,71,35,11,134.0,1.0,105,21,2,1,2,2,-2,-1,-1,-6
47,136,69,34,9,137.0,1.0,95,21,0,0,0,1,1,1,-1,-7
48,139,81,41,9,140.0,1.0,95,21,12,7,0,1,0,0,1,-6
49,142,78,39,6,143.0,1.0,95,21,9,5,9,6,-2,-1,-1,-7
50,143,76,38,4,144.0,1.0,105,22,7,4,7,5,-2,-1,-1,-8
51,146,69,34,9,147.0,1.0,95,22,0,0,0,1,0,0,-1,-9
52,149,78,39,6,150.0,1.5,105,23,9,5,9,6,2,1,1,-8
53,152,83,42,11,153.0,2.0,95,23,14,8,2,2,0,0,1,-7
54,154,80,40,8,156.0,1.5,105,24,11,6,11,7,-1,-1,-1,-8
55,157,76,38,4,159.0,1.0,95,24,7,4,7,5,0,0,-1,-9
56,160,81,41,9,162.0,1.5,105,25,12,7,0,1,1,1,1,-8
57,163,80,40,8,165.0,1.0,95,25,11,6,11,7,-1,-1,-1,-9
58,166,78,39,6,168.0,1.0,105,26,9,5,9,6,-2,-1,-1,-10
59,169,76,38,4,171.0,1.0,95,26,7,4,7,5,-2,-1,-1,-11
60,172,74,37,2,174.0,1.5,105,27,5,3,5,4,5,3,-1,-12
61,175,76,38,4,177.0,1.0,95,27,7,4,7,5,-2,-1,1,-11
62,178,71,35,11,180.0,1.0,105,28,2,1,2,2,-2,-1,-1,-12
63,181,69,34,9,183.0,1.0,95,28,0,0,0,1,1,1,-1,-13
64,184,66,32,6,186.0,1.0,95,28,-3,-2,9,6,-3,-2,-1,-14
65,187,61,29,1,189.0,1.0,95,28,-8,-5,4,3,-3,-2,-1,-15
66,188,64,31,4,190.0,1.0,105,29,-5,-3,7,5,3,2,1,-14
67,191,76,38,4,193.0,1.0,95,29,7,4,7,5,3,2,1,-13
68,194,74,37,2,196.0,1.0,105,30,5,3,5,4,5,3,-1,-14
69,197,76,38,4,199.0,1.0,95,30,7,4,7,5,-2,-1,1,-13
70,200,73,36,1,202.0,1.0,105,31,4,2,4,3,0,0,-1,-14
71,203,71,35,11,205.0,1.0,95,31,2,1,2,2,0,0,-1,-15
72,206,73,36,1,208.0,1.0,105,32,4,2,4,3,-1,-1,1,-14
73,209,76,38,4,211.0,1.0,95,32,7,4,7,5,-5,-3,1,-13
74,212,74,37,2,214.0,1.0,105,33,5,3,5,4,5,3,-1,-14
75,215,76,38,4,217.0,1.0,95,33,7,4,7,5,-2,-1,1,-13
76,218,76,38,4,220.0,1.0,105,34,7,4,7,5,3,2,0,-13
77,221,76,38,4,223.0,1.0,95,34,7,4,7,5,3,2,0,-13
78,224,81,41,9,226.0,1.0,105,35,12,7,0,1,1,1,1,-12
79,227,69,34,9,229.0,2.0,95,35,0,0,0,1,-4,-2,-1,-13
80,229,69,34,9,232.0,1.0,95,35,0,0,0,1,-4,-2,0,-13
81,232,64,31,4,235.0,1.0,95,35,-5,-3,7,5,-2,-1,-1,-14
82,234,64,31,4,237.0,1.0,105,36,-5,-3,7,5,3,2,0,-14
83,237,76,38,4,240.0,1.0,95,36,7,4,7,5,3,2,1,-13
84,240,74,37,2,243.0,1.0,105,37,5,3,5,4,5,3,-1,-14
85,243,76,38,4,246.0,1.0,95,37,7,4,7,5,-2,-1,1,-13
86,246,73,36,1,249.0,1.0,105,38,4,2,4,3,0,0,-1,-14
87,249,71,35,11,252.0,1.0,95,38,2,1,2,2,0,0,-1,-15
88,252,73,36,1,255.0,1.0,105,39,4,2,4,3,-1,-1,1,-14
89,255,76,38,4,258.0,1.0,95,39,7,4,7,5,-5,-3,1,-13
90,258,74,37,2,261.0,1.0,105,40,5,3,5,4,5,3,-1,-14
91,261,76,38,4,264.0,1.0,95,40,7,4,7,5,-2,-1,1,-13
92,264,76,38,4,267.0,1.0,105,41,7,4,7,5,3,2,0,-13
93,267,76,38,4,270.0,1.0,95,41,7,4,7,5,3,2,0,-13
94,270,81,41,9,273.0,1.0,105,42,12,7,0,1,1,1,1,-12
95,273,69,34,9,276.0,2.0,95,42,0,0,0,1,-4,-2,-1,-13
96,275,81,41,9,279.0,1.0,95,42,12,7,0,1,5,3,1,-12
97,278,80,40,8,282.0,1.0,95,42,11,6,11,7,-1,-1,-1,-13
98,280,76,38,4,284.0,1.0,105,43,7,4,7,5,-2,-1,-1,-14
99,283,69,34,9,287.0,1.0,95,43,0,0,0,1,0,0,-1,-15
100,286,78,39,6,290.0,1.0,105,44,9,5,9,6,2,1,1,-14
101,289,83,42,11,293.0,2.0,95,44,14,8,2,2,0,0,1,-13
102,291,80,40,8,296.0,1.0,105,45,11,6,11,7,-1,-1,-1,-14
103,294,76,38,4,299.0,1.0,95,45,7,4,7,5,0,0,-1,-15
104,297,81,41,9,302.0,1.0,105,46,12,7,0,1,1,1,1,-14
105,300,80,40,8,305.0,1.0,95,46,11,6,11,7,-1,-1,-1,-15
106,303,78,39,6,308.0,1.0,105,47,9,5,9,6,-2,-1,-1,-16
107,306,76,38,4,311.0,1.0,95,47,7,4,7,5,-2,-1,-1,-17
108,309,74,37,2,314.0,1.0,105,48,5,3,5,4,1,1,-1,-18
109,312,76,38,4,317.0,1.0,95,48,7,4,7,5,-2,-1,1,-17
110,315,71,35,11,320.0,1.0,105,49,2,1,2,2,-2,-1,-1,-18
111,318,69,34,9,323.0,2.0,95,49,0,0,0,1,1,1,-1,-19
112,320,81,41,9,326.0,1.0,95,49,12,7,0,1,5,3,1,-18
113,323,80,40,8,329.0,1.0,95,49,11,6,11,7,-1,-1,-1,-19
114,325,76,38,4,331.0,1.0,105,50,7,4,7,5,-2,-1,-1,-20
115,328,69,34,9,334.0,1.0,95,50,0,0,0,1,0,0,-1,-21
116,331,78,39,6,337.0,1.0,105,51,9,5,9,6,2,1,1,-20
117,334,83,42,11,340.0,2.0,95,51,14,8,2,2,0,0,1,-19
118,336,80,40,8,343.0,1.0,105,52,11,6,11,7,-1,-1,-1,-20
119,339,76,38,4,346.0,1.0,95,52,7,4,7,5,0,0,-1,-21
120,342,81,41,9,349.0,1.0,105,53,12,7,0,1,1,1,1,-20
121,345,80,40,8,352.0,1.0,95,53,11,6,11,7,-1,-1,-1,-21
122,348,78,39,6,355.0,1.0,105,54,9,5,9,6,-2,-1,-1,-22
123,351,76,38,4,358.0,1.0,95,54,7,4,7,5,-2,-1,-1,-23
124,354,74,37,2,361.0,1.0,105,55,5,3,5,4,1,1,-1,-24
125,357,76,38,4,364.0,1.0,95,55,7,4,7,5,-2,-1,1,-23
126,360,71,35,11,367.0,1.0,105,56,2,1,2,2,-2,-1,-1,-24
127,363,69,34,9,370.0,2.0,95,56,0,0,0,1,1,1,-1,-25
