,index,midi_note_num,diatonic_note_num,chromatic_pitch_class,onset,duration,velocity,bar_count,relative_chromatic_pitch,relative_diatonic_pitch,chromatic_scale_degree,diatonic_scale_degree,chromatic_interval,diatonic_interval,parsons_code,parsons_cumsum
0,1,69,34,9,1.0,0.5,105,0,7,4,7,5,0,0,0,0
1,6,69,34,9,5.0,2.0,95,0,7,4,7,5,-4,-2,0,0
2,9,78,39,6,9.0,2.0,105,1,16,9,4,3,9,5,1,1
3,11,76,38,4,13.0,2.0,95,1,14,8,2,2,0,0,-1,0
4,13,69,34,9,17.0,0.5,105,2,7,4,7,5,-12,-7,-1,-1
5,18,69,34,9,21.0,2.0,95,2,7,4,7,5,-4,-2,0,-1
6,21,73,36,1,25.0,2.0,105,3,11,6,11,7,4,2,1,0
7,23,71,35,11,29.0,2.0,95,3,9,5,9,6,0,0,-1,-1
8,25,69,34,9,33.0,0.5,105,4,7,4,7,5,-12,-7,-1,-2
9,30,69,34,9,37.0,2.0,95,4,7,4,7,5,-4,-2,0,-2
10,33,78,39,6,41.0,2.0,105,5,16,9,4,3,9,5,1,-1
11,35,76,38,4,45.0,2.0,95,5,14,8,2,2,0,0,-1,-2
12,37,78,39,6,49.0,0.5,105,6,16,9,4,3,-3,-2,1,-1
13,41,73,36,1,53.0,0.5,95,6,11,6,11,7,-8,-5,-1,-2
14,45,73,36,1,57.0,2.0,105,7,11,6,11,7,-8,-5,0,-2
15,47,69,34,9,61.0,2.0,95,7,7,4,7,5,0,0,-1,-3
16,49,69,34,9,65.0,0.5,105,8,7,4,7,5,-12,-7,0,-3
17,54,69,34,9,69.0,2.0,95,8,7,4,7,5,-4,-2,0,-3
18,57,78,39,6,73.0,2.0,105,9,16,9,4,3,9,5,1,-2
19,59,76,38,4,77.0,2.0,95,9,14,8,2,2,0,0,-1,-3
20,61,69,34,9,81.0,0.5,105,10,7,4,7,5,-12,-7,-1,-4
21,66,69,34,9,85.0,2.0,95,10,7,4,7,5,-4,-2,0,-4
22,69,73,36,1,89.0,2.0,105,11,11,6,11,7,4,2,1,-3
23,71,71,35,11,93.0,2.0,95,11,9,5,9,6,0,0,-1,-4
24,73,69,34,9,97.0,0.5,105,12,7,4,7,5,-12,-7,-1,-5
25,78,69,34,9,101.0,2.0,95,12,7,4,7,5,-4,-2,0,-5
26,81,78,39,6,105.0,2.0,105,13,16,9,4,3,9,5,1,-4
27,83,76,38,4,109.0,2.0,95,13,14,8,2,2,0,0,-1,-5
28,85,78,39,6,113.0,0.5,105,14,16,9,4,3,-3,-2,1,-4
29,89,73,36,1,117.0,0.5,95,14,11,6,11,7,-8,-5,-1,-5
30,93,73,36,1,121.0,2.0,105,15,11,6,11,7,-8,-5,0,-5
31,95,69,34,9,125.0,2.0,95,15,7,4,7,5,0,0,-1,-6
32,97,78,39,6,129.0,2.0,105,16,16,9,4,3,-3,-2,1,-5
33,100,73,36,1,133.0,2.0,95,16,11,6,11,7,-8,-5,-1,-6
34,103,73,36,1,137.0,2.0,105,17,11,6,11,7,-8,-5,0,-6
35,105,69,34,9,141.0,2.0,95,17,7,4,7,5,0,0,-1,-7
36,107,78,39,6,145.0,2.0,105,18,16,9,4,3,-3,-2,1,-6
37,110,73,36,1,149.0,2.0,95,18,11,6,11,7,-8,-5,-1,-7
38,113,73,36,1,153.0,2.0,105,19,11,6,11,7,-8,-5,0,-7
39,115,71,35,11,157.0,2.0,95,19,9,5,9,6,0,0,-1,-8
40,117,78,39,6,161.0,2.0,105,20,16,9,4,3,-3,-2,1,-7
41,120,73,36,1,165.0,2.0,95,20,11,6,11,7,-8,-5,-1,-8
42,123,76,38,4,169.0,1.5,105,21,14,8,2,2,-5,-3,1,-7
43,127,76,38,4,173.0,2.0,95,21,14,8,2,2,3,2,0,-7
44,129,78,39,6,177.0,0.5,105,22,16,9,4,3,-3,-2,1,-6
45,133,73,36,1,181.0,0.5,95,22,11,6,11,7,-8,-5,-1,-7
46,137,73,36,1,185.0,2.0,105,23,11,6,11,7,-8,-5,0,-7
47,139,69,34,9,189.0,2.0,95,23,7,4,7,5,0,0,-1,-8
48,141,78,39,6,193.0,2.0,105,24,16,9,4,3,-3,-2,1,-7
49,144,73,36,1,197.0,2.0,95,24,11,6,11,7,-8,-5,-1,-8
50,147,73,36,1,201.0,2.0,105,25,11,6,11,7,-8,-5,0,-8
51,149,69,34,9,205.0,2.0,95,25,7,4,7,5,0,0,-1,-9
52,151,78,39,6,209.0,1.5,105,26,16,9,4,3,-3,-2,1,-8
53,155,73,36,1,213.0,2.0,95,26,11,6,11,7,-8,-5,-1,-9
54,158,73,36,1,217.0,2.0,105,27,11,6,11,7,-8,-5,0,-9
55,160,71,35,11,221.0,2.0,95,27,9,5,9,6,0,0,-1,-10
56,162,78,39,6,225.0,2.0,105,28,16,9,4,3,-3,-2,1,-9
57,165,73,36,1,229.0,2.0,95,28,11,6,11,7,-8,-5,-1,-10
58,168,76,38,4,233.0,1.5,105,29,14,8,2,2,-5,-3,1,-9
59,172,76,38,4,237.0,2.0,95,29,14,8,2,2,3,2,0,-9
60,174,78,39,6,241.0,0.5,105,30,16,9,4,3,-3,-2,1,-8
61,178,73,36,1,245.0,0.5,95,30,11,6,11,7,-8,-5,-1,-9
62,182,73,36,1,249.0,2.0,105,31,11,6,11,7,-8,-5,0,-9
63,184,69,34,9,253.0,2.0,95,31,7,4,7,5,0,0,-1,-10
64,186,69,34,9,257.0,0.5,105,32,7,4,7,5,-12,-7,0,-10
65,191,69,34,9,261.0,1.5,95,32,7,4,7,5,-4,-2,0,-10
66,195,78,39,6,265.0,2.0,105,33,16,9,4,3,9,5,1,-9
67,197,76,38,4,269.0,2.0,95,33,14,8,2,2,0,0,-1,-10
68,199,69,34,9,273.0,0.5,105,34,7,4,7,5,-12,-7,-1,-11
69,204,69,34,9,277.0,1.5,95,34,7,4,7,5,-4,-2,0,-11
70,208,73,36,1,281.0,2.0,105,35,11,6,11,7,4,2,1,-10
71,210,71,35,11,285.0,2.0,95,35,9,5,9,6,0,0,-1,-11
72,212,69,34,9,289.0,0.5,105,36,7,4,7,5,-12,-7,-1,-12
73,217,69,34,9,293.0,1.5,95,36,7,4,7,5,-4,-2,0,-12
74,221,78,39,6,297.0,2.0,105,37,16,9,4,3,9,5,1,-11
75,223,76,38,4,301.0,2.0,95,37,14,8,2,2,0,0,-1,-12
76,225,78,39,6,305.0,0.5,105,38,16,9,4,3,-3,-2,1,-11
77,229,73,36,1,309.0,0.5,95,38,11,6,11,7,-8,-5,-1,-12
78,233,73,36,1,313.0,2.0,105,39,11,6,11,7,-8,-5,0,-12
79,235,69,34,9,317.0,2.0,95,39,7,4,7,5,0,0,-1,-13
80,237,69,34,9,321.0,0.5,105,40,7,4,7,5,-12,-7,0,-13
81,242,69,34,9,325.0,1.5,95,40,7,4,7,5,-4,-2,0,-13
82,246,78,39,6,329.0,2.0,105,41,16,9,4,3,9,5,1,-12
83,248,76,38,4,333.0,2.0,95,41,14,8,2,2,0,0,-1,-13
84,250,69,34,9,337.0,0.5,105,42,7,4,7,5,-12,-7,-1,-14
85,255,69,34,9,341.0,1.5,95,42,7,4,7,5,-4,-2,0,-14
86,259,73,36,1,345.0,2.0,105,43,11,6,11,7,4,2,1,-13
87,261,71,35,11,349.0,2.0,95,43,9,5,9,6,0,0,-1,-14
88,263,69,34,9,353.0,0.5,105,44,7,4,7,5,-12,-7,-1,-15
89,268,69,34,9,357.0,1.5,95,44,7,4,7,5,-4,-2,0,-15
90,272,78,39,6,361.0,2.0,105,45,16,9,4,3,9,5,1,-14
91,274,76,38,4,365.0,2.0,95,45,14,8,2,2,0,0,-1,-15
92,276,78,39,6,369.0,0.5,105,46,16,9,4,3,-3,-2,1,-14
93,280,73,36,1,373.0,0.5,95,46,11,6,11,7,-8,-5,-1,-15
94,284,73,36,1,377.0,2.0,105,47,11,6,11,7,-8,-5,0,-15
95,286,69,34,9,381.0,2.0,95,47,7,4,7,5,0,0,-1,-16
96,288,78,39,6,385.0,0.5,105,48,16,9,4,3,-3,-2,1,-15
97,292,73,36,1,389.0,0.5,95,48,11,6,11,7,-8,-5,-1,-16
98,296,73,36,1,393.0,2.0,105,49,11,6,11,7,-8,-5,0,-16
99,298,69,34,9,397.0,2.0,95,49,7,4,7,5,0,0,-1,-17
100,300,78,39,6,401.0,0.5,105,50,16,9,4,3,-3,-2,1,-16
101,304,73,36,1,405.0,0.5,95,50,11,6,11,7,-8,-5,-1,-17
102,308,73,36,1,409.0,2.0,105,51,11,6,11,7,-8,-5,0,-17
103,310,71,35,11,413.0,2.0,95,51,9,5,9,6,0,0,-1,-18
104,312,78,39,6,417.0,0.5,105,52,16,9,4,3,-3,-2,1,-17
105,316,73,36,1,421.0,0.5,95,52,11,6,11,7,-8,-5,-1,-18
106,320,76,38,4,425.0,1.5,105,53,14,8,2,2,-5,-3,1,-17
107,324,76,38,4,429.0,2.0,95,53,14,8,2,2,3,2,0,-17
108,326,78,39,6,433.0,0.5,105,54,16,9,4,3,-3,-2,1,-16
109,330,73,36,1,437.0,0.5,95,54,11,6,11,7,-8,-5,-1,-17
110,334,73,36,1,441.0,2.0,105,55,11,6,11,7,-8,-5,0,-17
111,336,69,34,9,445.0,2.0,95,55,7,4,7,5,0,0,-1,-18
112,338,78,39,6,449.0,0.5,105,56,16,9,4,3,-3,-2,1,-17
113,342,73,36,1,453.0,0.5,95,56,11,6,11,7,-8,-5,-1,-18
114,346,73,36,1,457.0,2.0,105,57,11,6,11,7,-8,-5,0,-18
115,348,69,34,9,461.0,2.0,95,57,7,4,7,5,0,0,-1,-19
116,350,78,39,6,465.0,0.5,105,58,16,9,4,3,-3,-2,1,-18
117,354,73,36,1,469.0,0.5,95,58,11,6,11,7,-8,-5,-1,-19
118,358,73,36,1,473.0,2.0,105,59,11,6,11,7,-8,-5,0,-19
119,360,71,35,11,477.0,2.0,95,59,9,5,9,6,0,0,-1,-20
120,362,78,39,6,481.0,0.5,105,60,16,9,4,3,-3,-2,1,-19
121,366,73,36,1,485.0,0.5,95,60,11,6,11,7,-8,-5,-1,-20
122,370,76,38,4,489.0,1.5,105,61,14,8,2,2,-5,-3,1,-19
123,374,76,38,4,493.0,2.0,95,61,14,8,2,2,3,2,0,-19
124,376,78,39,6,497.0,0.5,105,62,16,9,4,3,-3,-2,1,-18
125,380,73,36,1,501.0,0.5,95,62,11,6,11,7,-8,-5,-1,-19
126,384,73,36,1,505.0,2.0,105,63,11,6,11,7,-8,-5,0,-19
127,386,69,34,9,509.0,2.0,95,63,7,4,7,5,0,0,-1,-20
