,index,midi_note_num,diatonic_note_num,chromatic_pitch_class,onset,duration,velocity,bar_count,relative_chromatic_pitch,relative_diatonic_pitch,chromatic_scale_degree,diatonic_scale_degree,chromatic_interval,diatonic_interval,parsons_code,parsons_cumsum
0,0,69,34,9,0.0,2.0,105,0,2,1,2,2,0,0,0,0
1,3,69,34,9,4.0,2.0,95,0,2,1,2,2,2,1,0,0
2,6,76,38,4,8.0,1.5,105,1,9,5,9,6,2,1,1,1
3,10,76,38,4,12.0,2.0,95,1,9,5,9,6,2,1,0,1
4,13,67,33,7,16.0,1.5,105,2,0,0,0,1,-4,-2,-1,0
5,17,71,35,11,20.0,2.0,95,2,4,2,4,3,2,1,1,1
6,20,74,37,2,24.0,1.5,105,3,7,4,7,5,3,2,1,2
7,24,76,38,4,28.0,2.0,95,3,9,5,9,6,5,3,1,3
8,27,69,34,9,32.0,2.0,105,4,2,1,2,2,-2,-1,-1,2
9,30,69,34,9,36.0,2.0,95,4,2,1,2,2,2,1,0,2
10,33,76,38,4,40.0,1.5,105,5,9,5,9,6,2,1,1,3
11,37,76,38,4,44.0,2.0,95,5,9,5,9,6,2,1,0,3
12,40,67,33,7,48.0,1.5,105,6,0,0,0,1,-4,-2,-1,2
13,44,74,37,2,52.0,1.5,95,6,7,4,7,5,-2,-1,1,3
14,48,71,35,11,56.0,2.0,105,7,4,2,4,3,-3,-2,-1,2
15,50,69,34,9,60.0,4.0,95,7,2,1,2,2,0,0,-1,1
16,51,69,34,9,64.0,2.0,105,8,2,1,2,2,0,0,0,1
17,54,69,34,9,68.0,2.0,95,8,2,1,2,2,2,1,0,1
18,57,76,38,4,72.0,1.5,105,9,9,5,9,6,2,1,1,2
19,61,76,38,4,76.0,2.0,95,9,9,5,9,6,2,1,0,2
20,64,67,33,7,80.0,1.5,105,10,0,0,0,1,-4,-2,-1,1
21,68,71,35,11,84.0,2.0,95,10,4,2,4,3,2,1,1,2
22,71,74,37,2,88.0,1.5,105,11,7,4,7,5,3,2,1,3
23,75,76,38,4,92.0,2.0,95,11,9,5,9,6,5,3,1,4
24,78,69,34,9,96.0,2.0,105,12,2,1,2,2,-2,-1,-1,3
25,81,69,34,9,100.0,2.0,95,12,2,1,2,2,2,1,0,3
26,84,76,38,4,104.0,1.5,105,13,9,5,9,6,2,1,1,4
27,88,76,38,4,108.0,2.0,95,13,9,5,9,6,2,1,0,4
28,91,67,33,7,112.0,1.5,105,14,0,0,0,1,-4,-2,-1,3
29,95,74,37,2,116.0,1.5,95,14,7,4,7,5,-2,-1,1,4
30,99,71,35,11,120.0,2.0,105,15,4,2,4,3,-3,-2,-1,3
31,101,69,34,9,124.0,4.0,95,15,2,1,2,2,0,0,-1,2
32,102,76,38,4,128.0,1.5,105,16,9,5,9,6,7,4,1,3
33,106,76,38,4,132.0,2.0,95,16,9,5,9,6,2,1,0,3
34,108,79,40,7,136.0,1.5,105,17,12,7,0,1,-2,-1,1,4
35,112,76,38,4,140.0,4.0,95,17,9,5,9,6,2,1,-1,3
36,113,74,37,2,144.0,1.5,105,18,7,4,7,5,-2,-1,-1,2
37,117,74,37,2,148.0,2.0,95,18,7,4,7,5,3,2,0,2
38,120,79,40,7,152.0,1.5,105,19,12,7,0,1,1,1,1,3
39,124,76,38,4,156.0,2.0,95,19,9,5,9,6,2,1,-1,2
40,127,76,38,4,160.0,1.5,105,20,9,5,9,6,5,3,0,2
41,131,76,38,4,164.0,2.0,95,20,9,5,9,6,2,1,0,2
42,133,79,40,7,168.0,1.5,105,21,12,7,0,1,-2,-1,1,3
43,137,76,38,4,172.0,2.0,95,21,9,5,9,6,2,1,-1,2
44,140,67,33,7,176.0,1.5,105,22,0,0,0,1,-4,-2,-1,1
45,144,74,37,2,180.0,1.5,95,22,7,4,7,5,-2,-1,1,2
46,148,71,35,11,184.0,2.0,105,23,4,2,4,3,-3,-2,-1,1
47,150,69,34,9,188.0,4.0,95,23,2,1,2,2,0,0,-1,0
48,151,76,38,4,192.0,1.5,105,24,9,5,9,6,7,4,1,1
49,155,76,38,4,196.0,2.0,95,24,9,5,9,6,2,1,0,1
50,157,79,40,7,200.0,1.5,105,25,12,7,0,1,-2,-1,1,2
51,161,76,38,4,204.0,4.0,95,25,9,5,9,6,2,1,-1,1
52,162,74,37,2,208.0,1.5,105,26,7,4,7,5,-2,-1,-1,0
53,166,74,37,2,212.0,2.0,95,26,7,4,7,5,3,2,0,0
54,169,79,40,7,216.0,1.5,105,27,12,7,0,1,1,1,1,1
55,173,76,38,4,220.0,2.0,95,27,9,5,9,6,2,1,-1,0
56,176,76,38,4,224.0,1.5,105,28,9,5,9,6,5,3,0,0
57,180,76,38,4,228.0,2.0,95,28,9,5,9,6,2,1,0,0
58,182,79,40,7,232.0,1.5,105,29,12,7,0,1,-2,-1,1,1
59,186,76,38,4,236.0,2.0,95,29,9,5,9,6,2,1,-1,0
60,189,67,33,7,240.0,1.5,105,30,0,0,0,1,-4,-2,-1,-1
61,193,74,37,2,244.0,1.5,95,30,7,4,7,5,-2,-1,1,0
62,197,71,35,11,248.0,2.0,105,31,4,2,4,3,-3,-2,-1,-1
63,199,69,34,9,252.0,4.0,95,31,2,1,2,2,0,0,-1,-2
64,200,69,34,9,256.0,2.0,105,32,2,1,2,2,0,0,0,-2
65,203,69,34,9,260.0,2.0,95,32,2,1,2,2,-2,-1,0,-2
66,206,76,38,4,264.0,1.5,105,33,9,5,9,6,5,3,1,-1
67,210,76,38,4,268.0,2.0,95,33,9,5,9,6,2,1,0,-1
68,213,67,33,7,272.0,1.5,105,34,0,0,0,1,-4,-2,-1,-2
69,217,71,35,11,276.0,2.0,95,34,4,2,4,3,2,1,1,-1
70,220,74,37,2,280.0,1.5,105,35,7,4,7,5,3,2,1,0
71,224,76,38,4,284.0,2.0,95,35,9,5,9,6,5,3,1,1
72,227,69,34,9,288.0,2.0,105,36,2,1,2,2,-2,-1,-1,0
73,230,69,34,9,292.0,2.0,95,36,2,1,2,2,-2,-1,0,0
74,233,76,38,4,296.0,1.5,105,37,9,5,9,6,5,3,1,1
75,237,76,38,4,300.0,2.0,95,37,9,5,9,6,2,1,0,1
76,240,67,33,7,304.0,1.5,105,38,0,0,0,1,-4,-2,-1,0
77,244,74,37,2,308.0,1.5,95,38,7,4,7,5,-2,-1,1,1
78,248,71,35,11,312.0,2.0,105,39,4,2,4,3,-3,-2,-1,0
79,250,69,34,9,316.0,4.0,95,39,2,1,2,2,0,0,-1,-1
80,251,69,34,9,320.0,2.0,105,40,2,1,2,2,0,0,0,-1
81,254,69,34,9,324.0,2.0,95,40,2,1,2,2,-2,-1,0,-1
82,257,76,38,4,328.0,1.5,105,41,9,5,9,6,5,3,1,0
83,261,76,38,4,332.0,2.0,95,41,9,5,9,6,2,1,0,0
84,264,67,33,7,336.0,1.5,105,42,0,0,0,1,-4,-2,-1,-1
85,268,71,35,11,340.0,2.0,95,42,4,2,4,3,2,1,1,0
86,271,74,37,2,344.0,1.5,105,43,7,4,7,5,3,2,1,1
87,275,76,38,4,348.0,2.0,95,43,9,5,9,6,5,3,1,2
88,278,69,34,9,352.0,2.0,105,44,2,1,2,2,-2,-1,-1,1
89,281,69,34,9,356.0,2.0,95,44,2,1,2,2,-2,-1,0,1
90,284,76,38,4,360.0,1.5,105,45,9,5,9,6,5,3,1,2
91,288,76,38,4,364.0,2.0,95,45,9,5,9,6,2,1,0,2
92,291,67,33,7,368.0,1.5,105,46,0,0,0,1,-4,-2,-1,1
93,295,74,37,2,372.0,1.5,95,46,7,4,7,5,-2,-1,1,2
94,299,71,35,11,376.0,2.0,105,47,4,2,4,3,-3,-2,-1,1
95,301,69,34,9,380.0,4.0,95,47,2,1,2,2,0,0,-1,0
96,302,76,38,4,384.0,1.5,105,48,9,5,9,6,7,4,1,1
97,305,81,41,9,388.0,1.5,95,48,14,8,2,2,12,7,1,2
98,309,79,40,7,392.0,1.5,105,49,12,7,0,1,-2,-1,-1,1
99,313,76,38,4,396.0,4.0,95,49,9,5,9,6,2,1,-1,0
100,314,71,35,11,400.0,0.5,105,50,4,2,4,3,-5,-3,-1,-1
101,318,67,33,7,404.0,2.0,95,50,0,0,0,1,-2,-1,-1,-2
102,321,76,38,4,408.0,1.5,105,51,9,5,9,6,2,1,1,-1
103,325,76,38,4,412.0,2.0,95,51,9,5,9,6,2,1,0,-1
104,328,76,38,4,416.0,1.5,105,52,9,5,9,6,5,3,0,-1
105,331,81,41,9,420.0,1.5,95,52,14,8,2,2,12,7,1,0
106,335,79,40,7,424.0,1.5,105,53,12,7,0,1,-2,-1,-1,-1
107,339,76,38,4,428.0,2.0,95,53,9,5,9,6,2,1,-1,-2
108,342,67,33,7,432.0,1.5,105,54,0,0,0,1,-4,-2,-1,-3
109,346,74,37,2,436.0,1.5,95,54,7,4,7,5,-2,-1,1,-2
110,350,71,35,11,440.0,2.0,105,55,4,2,4,3,-3,-2,-1,-3
111,352,69,34,9,444.0,4.0,95,55,2,1,2,2,0,0,-1,-4
112,353,76,38,4,448.0,1.5,105,56,9,5,9,6,7,4,1,-3
113,356,81,41,9,452.0,1.5,95,56,14,8,2,2,12,7,1,-2
114,360,79,40,7,456.0,1.5,105,57,12,7,0,1,-2,-1,-1,-3
115,364,76,38,4,460.0,4.0,95,57,9,5,9,6,2,1,-1,-4
116,365,71,35,11,464.0,0.5,105,58,4,2,4,3,-5,-3,-1,-5
117,369,67,33,7,468.0,2.0,95,58,0,0,0,1,-2,-1,-1,-6
118,372,76,38,4,472.0,1.5,105,59,9,5,9,6,2,1,1,-5
119,376,76,38,4,476.0,2.0,95,59,9,5,9,6,2,1,0,-5
120,379,69,34,9,480.0,2.0,105,60,2,1,2,2,-2,-1,-1,-6
121,382,69,34,9,484.0,2.0,95,60,2,1,2,2,2,1,0,-6
122,385,76,38,4,488.0,1.5,105,61,9,5,9,6,2,1,1,-5
123,389,76,38,4,492.0,2.0,95,61,9,5,9,6,2,1,0,-5
124,392,67,33,7,496.0,1.5,105,62,0,0,0,1,-4,-2,-1,-6
125,396,74,37,2,500.0,1.5,95,62,7,4,7,5,-2,-1,1,-5
126,400,71,35,11,504.0,2.0,105,63,4,2,4,3,-3,-2,-1,-6
127,402,69,34,9,508.0,4.0,95,63,2,1,2,2,0,0,-1,-7
