,index,midi_note_num,diatonic_note_num,chromatic_pitch_class,onset,duration,velocity,bar_count,relative_chromatic_pitch,relative_diatonic_pitch,chromatic_scale_degree,diatonic_scale_degree,chromatic_interval,diatonic_interval,parsons_code,parsons_cumsum
0,1,69,34,9,2.0,1.0,105,0,0,0,0,1,0,0,0,0
1,5,76,38,4,6.0,2.0,95,0,7,4,7,5,3,2,1,1
2,7,78,39,6,10.0,1.0,105,1,9,5,9,6,2,1,1,2
3,11,78,39,6,14.0,1.0,95,1,9,5,9,6,2,1,0,2
4,15,69,34,9,18.0,1.0,105,2,0,0,0,1,-4,-2,-1,1
5,19,76,38,4,22.0,2.0,95,2,7,4,7,5,3,2,1,2
6,22,76,38,4,26.0,1.0,105,3,7,4,7,5,-2,-1,0,2
7,26,71,35,11,30.0,1.0,95,3,2,1,2,2,2,1,-1,1
8,30,69,34,9,34.0,1.0,105,4,0,0,0,1,-4,-2,-1,0
9,34,76,38,4,38.0,2.0,95,4,7,4,7,5,3,2,1,1
10,36,78,39,6,42.0,1.0,105,5,9,5,9,6,2,1,1,2
11,40,78,39,6,46.0,1.0,95,5,9,5,9,6,2,1,0,2
12,44,69,34,9,50.0,1.0,105,6,0,0,0,1,-4,-2,-1,1
13,48,73,36,1,54.0,1.0,95,6,4,2,4,3,2,1,1,2
14,52,71,35,11,58.0,1.0,105,7,2,1,2,2,-2,-1,-1,1
15,56,69,34,9,62.0,2.0,95,7,0,0,0,1,-2,-1,-1,0
16,58,69,34,9,66.0,1.0,105,8,0,0,0,1,-7,-4,0,0
17,62,76,38,4,70.0,2.0,95,8,7,4,7,5,3,2,1,1
18,64,78,39,6,74.0,1.0,105,9,9,5,9,6,2,1,1,2
19,68,78,39,6,78.0,1.0,95,9,9,5,9,6,2,1,0,2
20,72,69,34,9,82.0,1.0,105,10,0,0,0,1,-4,-2,-1,1
21,76,76,38,4,86.0,2.0,95,10,7,4,7,5,3,2,1,2
22,79,76,38,4,90.0,1.0,105,11,7,4,7,5,-2,-1,0,2
23,83,71,35,11,94.0,1.0,95,11,2,1,2,2,2,1,-1,1
24,87,69,34,9,98.0,1.0,105,12,0,0,0,1,-4,-2,-1,0
25,91,76,38,4,102.0,2.0,95,12,7,4,7,5,3,2,1,1
26,93,78,39,6,106.0,1.0,105,13,9,5,9,6,2,1,1,2
27,97,78,39,6,110.0,1.0,95,13,9,5,9,6,2,1,0,2
28,101,69,34,9,114.0,1.0,105,14,0,0,0,1,-4,-2,-1,1
29,105,73,36,1,118.0,1.0,95,14,4,2,4,3,2,1,1,2
30,109,71,35,11,122.0,1.0,105,15,2,1,2,2,-2,-1,-1,1
31,113,69,34,9,126.0,2.0,95,15,0,0,0,1,-2,-1,-1,0
32,115,81,41,9,130.0,2.0,105,16,12,7,0,1,5,3,1,1
33,118,78,39,6,134.0,1.0,95,16,9,5,9,6,-3,-2,-1,0
34,122,73,36,1,138.0,1.0,105,17,4,2,4,3,4,2,-1,-1
35,126,73,36,1,142.0,1.0,95,17,4,2,4,3,0,0,0,-1
36,130,81,41,9,146.0,2.0,105,18,12,7,0,1,3,2,1,0
37,133,78,39,6,150.0,1.0,95,18,9,5,9,6,-3,-2,-1,-1
38,137,69,34,9,154.0,1.0,105,19,0,0,0,1,0,0,-1,-2
39,141,71,35,11,158.0,1.0,95,19,2,1,2,2,-2,-1,1,-1
40,145,81,41,9,162.0,2.0,105,20,12,7,0,1,5,3,1,0
41,148,78,39,6,166.0,1.0,95,20,9,5,9,6,-3,-2,-1,-1
42,152,73,36,1,170.0,1.0,105,21,4,2,4,3,4,2,-1,-2
43,156,73,36,1,174.0,1.0,95,21,4,2,4,3,0,0,0,-2
44,160,69,34,9,178.0,1.0,105,22,0,0,0,1,-9,-5,-1,-3
45,164,73,36,1,182.0,1.0,95,22,4,2,4,3,2,1,1,-2
46,168,71,35,11,186.0,1.0,105,23,2,1,2,2,-2,-1,-1,-3
47,172,69,34,9,190.0,2.0,95,23,0,0,0,1,-2,-1,-1,-4
48,174,81,41,9,194.0,2.0,105,24,12,7,0,1,5,3,1,-3
49,177,78,39,6,198.0,1.0,95,24,9,5,9,6,-3,-2,-1,-4
50,181,73,36,1,202.0,1.0,105,25,4,2,4,3,4,2,-1,-5
51,185,73,36,1,206.0,1.0,95,25,4,2,4,3,0,0,0,-5
52,189,81,41,9,210.0,2.0,105,26,12,7,0,1,3,2,1,-4
53,192,78,39,6,214.0,1.0,95,26,9,5,9,6,-3,-2,-1,-5
54,196,69,34,9,218.0,1.0,105,27,0,0,0,1,0,0,-1,-6
55,200,71,35,11,222.0,1.0,95,27,2,1,2,2,-2,-1,1,-5
56,204,81,41,9,226.0,2.0,105,28,12,7,0,1,5,3,1,-4
57,207,78,39,6,230.0,1.0,95,28,9,5,9,6,-3,-2,-1,-5
58,211,73,36,1,234.0,1.0,105,29,4,2,4,3,4,2,-1,-6
59,215,73,36,1,238.0,1.0,95,29,4,2,4,3,0,0,0,-6
60,219,69,34,9,242.0,1.0,105,30,0,0,0,1,-9,-5,-1,-7
61,223,73,36,1,246.0,1.0,95,30,4,2,4,3,2,1,1,-6
62,227,71,35,11,250.0,1.0,105,31,2,1,2,2,-2,-1,-1,-7
63,231,69,34,9,254.0,2.0,95,31,0,0,0,1,-2,-1,-1,-8
64,233,73,36,1,258.0,1.0,105,32,4,2,4,3,-8,-5,1,-7
65,237,69,34,9,262.0,1.0,95,32,0,0,0,1,-2,-1,-1,-8
66,241,76,38,4,266.0,2.0,105,33,7,4,7,5,3,2,1,-7
67,244,81,41,9,270.0,1.0,95,33,12,7,0,1,3,2,1,-6
68,248,73,36,1,274.0,1.0,105,34,4,2,4,3,-3,-2,-1,-7
69,252,69,34,9,278.0,1.0,95,34,0,0,0,1,-2,-1,-1,-8
70,256,76,38,4,282.0,1.0,105,35,7,4,7,5,-2,-1,1,-7
71,260,71,35,11,286.0,1.0,95,35,2,1,2,2,2,1,-1,-8
72,264,73,36,1,290.0,1.0,105,36,4,2,4,3,-8,-5,1,-7
73,268,69,34,9,294.0,1.0,95,36,0,0,0,1,-2,-1,-1,-8
74,272,76,38,4,298.0,2.0,105,37,7,4,7,5,3,2,1,-7
75,275,81,41,9,302.0,1.0,95,37,12,7,0,1,3,2,1,-6
76,279,69,34,9,306.0,1.0,105,38,0,0,0,1,-7,-4,-1,-7
77,283,73,36,1,310.0,1.0,95,38,4,2,4,3,2,1,1,-6
78,287,71,35,11,314.0,1.0,105,39,2,1,2,2,-2,-1,-1,-7
79,291,69,34,9,318.0,2.0,95,39,0,0,0,1,-2,-1,-1,-8
80,293,73,36,1,322.0,1.0,105,40,4,2,4,3,-8,-5,1,-7
81,297,69,34,9,326.0,1.0,95,40,0,0,0,1,-2,-1,-1,-8
82,301,76,38,4,330.0,2.0,105,41,7,4,7,5,3,2,1,-7
83,304,81,41,9,334.0,1.0,95,41,12,7,0,1,3,2,1,-6
84,308,73,36,1,338.0,1.0,105,42,4,2,4,3,-3,-2,-1,-7
85,312,69,34,9,342.0,1.0,95,42,0,0,0,1,-2,-1,-1,-8
86,316,76,38,4,346.0,1.0,105,43,7,4,7,5,-2,-1,1,-7
87,320,71,35,11,350.0,1.0,95,43,2,1,2,2,2,1,-1,-8
88,324,73,36,1,354.0,1.0,105,44,4,2,4,3,-8,-5,1,-7
89,328,69,34,9,358.0,1.0,95,44,0,0,0,1,-2,-1,-1,-8
90,332,76,38,4,362.0,2.0,105,45,7,4,7,5,3,2,1,-7
91,335,81,41,9,366.0,1.0,95,45,12,7,0,1,3,2,1,-6
92,339,69,34,9,370.0,1.0,105,46,0,0,0,1,-7,-4,-1,-7
93,343,73,36,1,374.0,1.0,95,46,4,2,4,3,2,1,1,-6
94,347,71,35,11,378.0,1.0,105,47,2,1,2,2,-2,-1,-1,-7
95,351,69,34,9,382.0,2.0,95,47,0,0,0,1,-2,-1,-1,-8
96,353,81,41,9,386.0,2.0,105,48,12,7,0,1,5,3,1,-7
97,356,78,39,6,390.0,1.0,95,48,9,5,9,6,2,1,-1,-8
98,360,73,36,1,394.0,1.0,105,49,4,2,4,3,-5,-3,-1,-9
99,364,78,39,6,398.0,1.0,95,49,9,5,9,6,2,1,1,-8
100,368,81,41,9,402.0,2.0,105,50,12,7,0,1,5,3,1,-7
101,371,78,39,6,406.0,1.0,95,50,9,5,9,6,2,1,-1,-8
102,375,76,38,4,410.0,1.0,105,51,7,4,7,5,-2,-1,-1,-9
103,379,71,35,11,414.0,1.0,95,51,2,1,2,2,2,1,-1,-10
104,383,81,41,9,418.0,2.0,105,52,12,7,0,1,5,3,1,-9
105,386,78,39,6,422.0,1.0,95,52,9,5,9,6,2,1,-1,-10
106,390,73,36,1,426.0,1.0,105,53,4,2,4,3,-5,-3,-1,-11
107,394,78,39,6,430.0,1.0,95,53,9,5,9,6,2,1,1,-10
108,398,69,34,9,434.0,1.0,105,54,0,0,0,1,-4,-2,-1,-11
109,402,73,36,1,438.0,1.0,95,54,4,2,4,3,2,1,1,-10
110,406,71,35,11,442.0,1.0,105,55,2,1,2,2,-2,-1,-1,-11
111,410,69,34,9,446.0,2.0,95,55,0,0,0,1,-2,-1,-1,-12
112,412,81,41,9,450.0,2.0,105,56,12,7,0,1,5,3,1,-11
113,415,78,39,6,454.0,1.0,95,56,9,5,9,6,2,1,-1,-12
114,419,73,36,1,458.0,1.0,105,57,4,2,4,3,-5,-3,-1,-13
115,423,78,39,6,462.0,1.0,95,57,9,5,9,6,2,1,1,-12
116,427,81,41,9,466.0,2.0,105,58,12,7,0,1,5,3,1,-11
117,430,78,39,6,470.0,1.0,95,58,9,5,9,6,2,1,-1,-12
118,434,76,38,4,474.0,1.0,105,59,7,4,7,5,-2,-1,-1,-13
119,438,71,35,11,478.0,1.0,95,59,2,1,2,2,2,1,-1,-14
120,442,81,41,9,482.0,2.0,105,60,12,7,0,1,5,3,1,-13
121,445,78,39,6,486.0,1.0,95,60,9,5,9,6,2,1,-1,-14
122,449,73,36,1,490.0,1.0,105,61,4,2,4,3,-5,-3,-1,-15
123,453,78,39,6,494.0,1.0,95,61,9,5,9,6,2,1,1,-14
124,457,69,34,9,498.0,1.0,105,62,0,0,0,1,-4,-2,-1,-15
125,461,73,36,1,502.0,1.0,95,62,4,2,4,3,2,1,1,-14
126,465,71,35,11,506.0,1.0,105,63,2,1,2,2,-2,-1,-1,-15
127,469,69,34,9,510.0,2.0,95,63,0,0,0,1,-2,-1,-1,-16
