,index,midi_note_num,diatonic_note_num,chromatic_pitch_class,onset,duration,velocity,bar_count,relative_chromatic_pitch,relative_diatonic_pitch,chromatic_scale_degree,diatonic_scale_degree,chromatic_interval,diatonic_interval,parsons_code,parsons_cumsum
0,0,66,32,6,0.0,1.0,105,0,4,2,4,3,0,0,0,0
1,3,78,39,6,3.0,1.0,95,0,16,9,4,3,4,2,1,1
2,8,81,41,9,6.0,1.0,105,1,19,11,7,5,3,2,1,2
3,11,74,37,2,9.0,2.0,95,1,12,7,0,1,-2,-1,-1,1
4,13,71,35,11,12.0,0.5,105,2,9,5,9,6,2,1,-1,0
5,17,69,34,9,15.0,1.0,95,2,7,4,7,5,-2,-1,-1,-1
6,20,74,37,2,18.0,1.0,105,3,12,7,0,1,5,3,1,0
7,23,64,31,4,21.0,1.0,95,3,2,1,2,2,-2,-1,-1,-1
8,28,66,32,6,24.0,1.0,105,4,4,2,4,3,2,1,1,0
9,31,78,39,6,27.0,1.0,95,4,16,9,4,3,4,2,1,1
10,36,81,41,9,30.0,1.0,105,5,19,11,7,5,3,2,1,2
11,39,74,37,2,33.0,2.0,95,5,12,7,0,1,-2,-1,-1,1
12,41,71,35,11,36.0,0.5,105,6,9,5,9,6,2,1,-1,0
13,45,78,39,6,39.0,1.0,95,6,16,9,4,3,2,1,1,1
14,48,69,34,9,42.0,1.0,105,7,7,4,7,5,-2,-1,-1,0
15,51,62,30,2,45.0,3.0,95,7,0,0,0,1,-2,-1,-1,-1
16,52,66,32,6,48.0,1.0,105,8,4,2,4,3,4,2,1,0
17,55,78,39,6,51.0,1.0,95,8,16,9,4,3,4,2,1,1
18,60,81,41,9,54.0,1.0,105,9,19,11,7,5,3,2,1,2
19,63,74,37,2,57.0,2.0,95,9,12,7,0,1,-2,-1,-1,1
20,65,71,35,11,60.0,0.5,105,10,9,5,9,6,2,1,-1,0
21,69,69,34,9,63.0,1.0,95,10,7,4,7,5,-2,-1,-1,-1
22,72,74,37,2,66.0,1.0,105,11,12,7,0,1,5,3,1,0
23,75,64,31,4,69.0,1.0,95,11,2,1,2,2,-2,-1,-1,-1
24,80,66,32,6,72.0,1.0,105,12,4,2,4,3,2,1,1,0
25,83,78,39,6,75.0,1.0,95,12,16,9,4,3,4,2,1,1
26,88,81,41,9,78.0,1.0,105,13,19,11,7,5,3,2,1,2
27,91,74,37,2,81.0,2.0,95,13,12,7,0,1,-2,-1,-1,1
28,93,71,35,11,84.0,0.5,105,14,9,5,9,6,2,1,-1,0
29,97,78,39,6,87.0,1.0,95,14,16,9,4,3,2,1,1,1
30,100,69,34,9,90.0,1.0,105,15,7,4,7,5,-2,-1,-1,0
31,103,62,30,2,93.0,3.0,95,15,0,0,0,1,-2,-1,-1,-1
32,104,78,39,6,96.0,1.0,105,16,16,9,4,3,16,9,1,0
33,107,69,34,9,99.0,1.0,95,16,7,4,7,5,-2,-1,-1,-1
34,112,62,30,2,102.0,1.0,105,17,0,0,0,1,-7,-4,-1,-2
35,115,74,37,2,105.0,1.0,95,17,12,7,0,1,5,3,1,-1
36,118,79,40,7,108.0,1.0,105,18,17,10,5,4,1,1,1,0
37,121,79,40,7,111.0,1.0,95,18,17,10,5,4,1,1,0,0
38,124,73,36,1,114.0,1.0,105,19,11,6,11,7,-1,-1,-1,-1
39,127,73,36,1,117.0,1.0,95,19,11,6,11,7,-1,-1,0,-1
40,130,78,39,6,120.0,1.0,105,20,16,9,4,3,9,5,1,0
41,133,69,34,9,123.0,1.0,95,20,7,4,7,5,-2,-1,-1,-1
42,138,62,30,2,126.0,1.0,105,21,0,0,0,1,-7,-4,-1,-2
43,141,74,37,2,129.0,1.0,95,21,12,7,0,1,5,3,1,-1
44,144,79,40,7,132.0,1.0,105,22,17,10,5,4,1,1,1,0
45,147,79,40,7,135.0,1.0,95,22,17,10,5,4,1,1,0,0
46,150,76,38,4,138.0,1.0,105,23,14,8,2,2,3,2,-1,-1
47,153,74,37,2,141.0,3.0,95,23,12,7,0,1,1,1,-1,-2
48,154,78,39,6,144.0,1.0,105,24,16,9,4,3,4,2,1,-1
49,157,69,34,9,147.0,1.0,95,24,7,4,7,5,-2,-1,-1,-2
50,162,62,30,2,150.0,1.0,105,25,0,0,0,1,-7,-4,-1,-3
51,165,74,37,2,153.0,1.0,95,25,12,7,0,1,5,3,1,-2
52,168,79,40,7,156.0,1.0,105,26,17,10,5,4,1,1,1,-1
53,171,79,40,7,159.0,1.0,95,26,17,10,5,4,1,1,0,-1
54,174,73,36,1,162.0,1.0,105,27,11,6,11,7,-1,-1,-1,-2
55,177,73,36,1,165.0,1.0,95,27,11,6,11,7,-1,-1,0,-2
56,180,78,39,6,168.0,1.0,105,28,16,9,4,3,9,5,1,-1
57,183,69,34,9,171.0,1.0,95,28,7,4,7,5,-2,-1,-1,-2
58,188,62,30,2,174.0,1.0,105,29,0,0,0,1,-7,-4,-1,-3
59,191,74,37,2,177.0,1.0,95,29,12,7,0,1,5,3,1,-2
60,194,79,40,7,180.0,1.0,105,30,17,10,5,4,1,1,1,-1
61,197,79,40,7,183.0,1.0,95,30,17,10,5,4,1,1,0,-1
62,200,76,38,4,186.0,1.0,105,31,14,8,2,2,3,2,-1,-2
63,203,74,37,2,189.0,3.0,95,31,12,7,0,1,1,1,-1,-3
64,204,69,34,9,192.0,1.0,105,32,7,4,7,5,-5,-3,-1,-4
65,207,81,41,9,195.0,1.0,95,32,19,11,7,5,3,2,1,-3
66,212,81,41,9,198.0,1.0,105,33,19,11,7,5,0,0,0,-3
67,215,81,41,9,201.0,1.0,95,33,19,11,7,5,3,2,0,-3
68,218,69,34,9,204.0,1.0,105,34,7,4,7,5,-9,-5,-1,-4
69,221,79,40,7,207.0,1.0,95,34,17,10,5,4,3,2,1,-3
70,226,79,40,7,210.0,1.0,105,35,17,10,5,4,0,0,0,-3
71,229,79,40,7,213.0,1.0,95,35,17,10,5,4,3,2,0,-3
72,232,78,39,6,216.0,1.0,105,36,16,9,4,3,2,1,-1,-4
73,237,79,40,7,219.0,1.0,95,36,17,10,5,4,1,1,1,-3
74,242,81,41,9,222.0,1.0,105,37,19,11,7,5,2,1,1,-2
75,247,83,42,11,225.0,1.0,95,37,21,12,9,6,2,1,1,-1
76,250,78,39,6,228.0,1.0,105,38,16,9,4,3,-1,-1,-1,-2
77,253,79,40,7,231.0,1.0,95,38,17,10,5,4,1,1,1,-1
78,256,76,38,4,234.0,1.0,105,39,14,8,2,2,3,2,-1,-2
79,259,74,37,2,237.0,3.0,95,39,12,7,0,1,1,1,-1,-3
80,260,69,34,9,240.0,1.0,105,40,7,4,7,5,-5,-3,-1,-4
81,263,81,41,9,243.0,1.0,95,40,19,11,7,5,3,2,1,-3
82,268,81,41,9,246.0,1.0,105,41,19,11,7,5,0,0,0,-3
83,271,81,41,9,249.0,1.0,95,41,19,11,7,5,3,2,0,-3
84,274,69,34,9,252.0,1.0,105,42,7,4,7,5,-9,-5,-1,-4
85,277,79,40,7,255.0,1.0,95,42,17,10,5,4,3,2,1,-3
86,282,79,40,7,258.0,1.0,105,43,17,10,5,4,0,0,0,-3
87,285,79,40,7,261.0,1.0,95,43,17,10,5,4,3,2,0,-3
88,288,78,39,6,264.0,1.0,105,44,16,9,4,3,2,1,-1,-4
89,293,79,40,7,267.0,1.0,95,44,17,10,5,4,1,1,1,-3
90,298,81,41,9,270.0,1.0,105,45,19,11,7,5,2,1,1,-2
91,303,83,42,11,273.0,1.0,95,45,21,12,9,6,2,1,1,-1
92,306,78,39,6,276.0,1.0,105,46,16,9,4,3,-1,-1,-1,-2
93,309,79,40,7,279.0,1.0,95,46,17,10,5,4,1,1,1,-1
94,312,76,38,4,282.0,1.0,105,47,14,8,2,2,3,2,-1,-2
95,315,74,37,2,285.0,3.0,95,47,12,7,0,1,1,1,-1,-3
96,316,66,32,6,288.0,1.0,105,48,4,2,4,3,-8,-5,-1,-4
97,319,78,39,6,291.0,1.0,95,48,16,9,4,3,4,2,1,-3
98,324,81,41,9,294.0,1.0,105,49,19,11,7,5,3,2,1,-2
99,327,74,37,2,297.0,1.0,95,49,12,7,0,1,-2,-1,-1,-3
100,330,71,35,11,300.0,1.0,105,50,9,5,9,6,2,1,-1,-4
101,335,71,35,11,303.0,1.0,95,50,9,5,9,6,0,0,0,-4
102,338,74,37,2,306.0,1.0,105,51,12,7,0,1,8,5,1,-3
103,341,64,31,4,309.0,1.0,95,51,2,1,2,2,-2,-1,-1,-4
104,344,66,32,6,312.0,1.0,105,52,4,2,4,3,-1,-1,1,-3
105,347,78,39,6,315.0,1.0,95,52,16,9,4,3,4,2,1,-2
106,352,81,41,9,318.0,1.0,105,53,19,11,7,5,3,2,1,-1
107,355,74,37,2,321.0,1.0,95,53,12,7,0,1,-2,-1,-1,-2
108,358,71,35,11,324.0,1.0,105,54,9,5,9,6,2,1,-1,-3
109,361,78,39,6,327.0,1.0,95,54,16,9,4,3,2,1,1,-2
110,364,69,34,9,330.0,1.0,105,55,7,4,7,5,-2,-1,-1,-3
111,367,74,37,2,333.0,3.0,95,55,12,7,0,1,5,3,1,-2
112,368,66,32,6,336.0,1.0,105,56,4,2,4,3,-8,-5,-1,-3
113,371,78,39,6,339.0,1.0,95,56,16,9,4,3,4,2,1,-2
114,376,81,41,9,342.0,1.0,105,57,19,11,7,5,3,2,1,-1
115,379,74,37,2,345.0,1.0,95,57,12,7,0,1,-2,-1,-1,-2
116,382,71,35,11,348.0,1.0,105,58,9,5,9,6,2,1,-1,-3
117,387,71,35,11,351.0,1.0,95,58,9,5,9,6,0,0,0,-3
118,390,74,37,2,354.0,1.0,105,59,12,7,0,1,8,5,1,-2
119,393,64,31,4,357.0,1.0,95,59,2,1,2,2,-2,-1,-1,-3
120,396,66,32,6,360.0,1.0,105,60,4,2,4,3,-1,-1,1,-2
121,399,78,39,6,363.0,1.0,95,60,16,9,4,3,4,2,1,-1
122,404,81,41,9,366.0,1.0,105,61,19,11,7,5,3,2,1,0
123,407,74,37,2,369.0,1.0,95,61,12,7,0,1,-2,-1,-1,-1
124,410,71,35,11,372.0,1.0,105,62,9,5,9,6,2,1,-1,-2
125,413,78,39,6,375.0,1.0,95,62,16,9,4,3,2,1,1,-1
126,416,69,34,9,378.0,1.0,105,63,7,4,7,5,-2,-1,-1,-2
127,419,74,37,2,381.0,2.0,95,63,12,7,0,1,5,3,1,-1
128,421,78,39,6,384.0,1.0,105,64,16,9,4,3,2,1,1,0
129,424,69,34,9,387.0,1.0,95,64,7,4,7,5,-2,-1,-1,-1
130,427,62,30,2,390.0,1.0,105,65,0,0,0,1,-7,-4,-1,-2
131,430,74,37,2,393.0,1.0,95,65,12,7,0,1,5,3,1,-1
132,433,79,40,7,396.0,1.0,105,66,17,10,5,4,-2,-1,1,0
133,438,79,40,7,399.0,1.0,95,66,17,10,5,4,0,0,0,0
134,441,73,36,1,402.0,1.0,105,67,11,6,11,7,-1,-1,-1,-1
135,444,73,36,1,405.0,1.0,95,67,11,6,11,7,-1,-1,0,-1
136,447,78,39,6,408.0,1.0,105,68,16,9,4,3,9,5,1,0
137,450,69,34,9,411.0,1.0,95,68,7,4,7,5,-2,-1,-1,-1
138,453,62,30,2,414.0,1.0,105,69,0,0,0,1,-7,-4,-1,-2
139,456,74,37,2,417.0,1.0,95,69,12,7,0,1,5,3,1,-1
140,459,79,40,7,420.0,1.0,105,70,17,10,5,4,-2,-1,1,0
141,464,81,41,9,423.0,1.0,95,70,19,11,7,5,2,1,1,1
142,467,76,38,4,426.0,1.0,105,71,14,8,2,2,0,0,-1,0
143,470,74,37,2,429.0,3.0,95,71,12,7,0,1,1,1,-1,-1
144,471,78,39,6,432.0,1.0,105,72,16,9,4,3,4,2,1,0
145,474,69,34,9,435.0,1.0,95,72,7,4,7,5,-2,-1,-1,-1
146,477,62,30,2,438.0,1.0,105,73,0,0,0,1,-7,-4,-1,-2
147,480,74,37,2,441.0,1.0,95,73,12,7,0,1,5,3,1,-1
148,483,79,40,7,444.0,1.0,105,74,17,10,5,4,-2,-1,1,0
149,488,79,40,7,447.0,1.0,95,74,17,10,5,4,0,0,0,0
150,491,73,36,1,450.0,1.0,105,75,11,6,11,7,-1,-1,-1,-1
151,494,73,36,1,453.0,1.0,95,75,11,6,11,7,-1,-1,0,-1
152,497,78,39,6,456.0,1.0,105,76,16,9,4,3,9,5,1,0
153,500,69,34,9,459.0,1.0,95,76,7,4,7,5,-2,-1,-1,-1
154,503,62,30,2,462.0,1.0,105,77,0,0,0,1,-7,-4,-1,-2
155,506,74,37,2,465.0,1.0,95,77,12,7,0,1,5,3,1,-1
156,509,79,40,7,468.0,1.0,105,78,17,10,5,4,-2,-1,1,0
157,514,81,41,9,471.0,1.0,95,78,19,11,7,5,2,1,1,1
158,517,76,38,4,474.0,1.0,105,79,14,8,2,2,0,0,-1,0
159,520,74,37,2,477.0,3.0,95,79,12,7,0,1,1,1,-1,-1
160,521,69,34,9,480.0,1.0,105,80,7,4,7,5,-5,-3,-1,-2
161,524,78,39,6,483.0,1.0,95,80,16,9,4,3,0,0,1,-1
162,527,81,41,9,486.0,1.0,105,81,19,11,7,5,0,0,1,0
163,530,81,41,9,489.0,1.0,95,81,19,11,7,5,3,2,0,0
164,533,69,34,9,492.0,1.0,105,82,7,4,7,5,-9,-5,-1,-1
165,536,79,40,7,495.0,1.0,95,82,17,10,5,4,3,2,1,0
166,541,79,40,7,498.0,1.0,105,83,17,10,5,4,0,0,0,0
167,544,79,40,7,501.0,1.0,95,83,17,10,5,4,3,2,0,0
168,547,78,39,6,504.0,2.0,105,84,16,9,4,3,2,1,-1,-1
169,549,79,40,7,507.0,2.0,95,84,17,10,5,4,5,3,1,0
170,551,81,41,9,510.0,1.0,105,85,19,11,7,5,5,3,1,1
171,554,76,38,4,513.0,1.0,95,85,14,8,2,2,-2,-1,-1,0
172,557,78,39,6,516.0,1.0,105,86,16,9,4,3,-1,-1,1,1
173,560,79,40,7,519.0,1.0,95,86,17,10,5,4,1,1,1,2
174,563,76,38,4,522.0,1.0,105,87,14,8,2,2,3,2,-1,1
175,566,74,37,2,525.0,3.0,95,87,12,7,0,1,1,1,-1,0
176,567,69,34,9,528.0,1.0,105,88,7,4,7,5,-5,-3,-1,-1
177,570,78,39,6,531.0,1.0,95,88,16,9,4,3,0,0,1,0
178,573,81,41,9,534.0,1.0,105,89,19,11,7,5,0,0,1,1
179,576,81,41,9,537.0,1.0,95,89,19,11,7,5,3,2,0,1
180,579,69,34,9,540.0,1.0,105,90,7,4,7,5,-9,-5,-1,0
181,582,79,40,7,543.0,1.0,95,90,17,10,5,4,3,2,1,1
182,587,79,40,7,546.0,1.0,105,91,17,10,5,4,0,0,0,1
183,590,79,40,7,549.0,1.0,95,91,17,10,5,4,3,2,0,1
184,593,78,39,6,552.0,2.0,105,92,16,9,4,3,2,1,-1,0
185,595,79,40,7,555.0,2.0,95,92,17,10,5,4,5,3,1,1
186,597,81,41,9,558.0,1.0,105,93,19,11,7,5,5,3,1,2
187,600,76,38,4,561.0,1.0,95,93,14,8,2,2,-2,-1,-1,1
188,603,78,39,6,564.0,1.0,105,94,16,9,4,3,-1,-1,1,2
189,606,79,40,7,567.0,1.0,95,94,17,10,5,4,1,1,1,3
190,609,76,38,4,570.0,1.0,105,95,14,8,2,2,3,2,-1,2
191,612,74,37,2,573.0,3.0,95,95,12,7,0,1,1,1,-1,1
