,index,midi_note_num,diatonic_note_num,chromatic_pitch_class,onset,duration,velocity,bar_count,relative_chromatic_pitch,relative_diatonic_pitch,chromatic_scale_degree,diatonic_scale_degree,chromatic_interval,diatonic_interval,parsons_code,parsons_cumsum
0,2,64,31,4,2.0,6.0,105,0,-5,-3,7,5,0,0,0,0
1,3,69,34,9,8.0,6.0,105,1,0,0,0,1,5,3,1,1
2,4,72,36,0,14.0,6.0,105,2,3,2,3,3,3,2,1,2
3,5,76,38,4,20.0,6.0,105,3,7,4,7,5,4,2,1,3
4,6,76,38,4,26.0,6.0,105,4,7,4,7,5,0,0,0,3
5,7,74,37,2,32.0,4.0,105,5,5,3,5,4,-2,-1,-1,2
6,9,72,36,0,38.0,6.0,105,6,3,2,3,3,3,2,-1,1
7,10,71,35,11,44.0,6.0,105,7,2,1,2,2,-1,-1,-1,0
8,11,69,34,9,50.0,6.0,105,8,0,0,0,1,-2,-1,-1,-1
9,12,72,36,0,56.0,6.0,105,9,3,2,3,3,3,2,1,0
10,13,76,38,4,62.0,6.0,105,10,7,4,7,5,4,2,1,1
11,14,79,40,7,68.0,6.0,105,11,10,6,10,7,3,2,1,2
12,15,79,40,7,74.0,6.0,105,12,10,6,10,7,0,0,0,2
13,16,79,40,7,80.0,2.0,105,13,10,6,10,7,0,0,0,2
14,19,76,38,4,86.0,6.0,105,14,7,4,7,5,-1,-1,-1,1
15,20,76,38,4,92.0,6.0,105,15,7,4,7,5,0,0,0,1
16,21,84,43,0,98.0,6.0,105,16,15,9,3,3,8,5,1,2
17,22,83,42,11,104.0,6.0,105,17,14,8,2,2,-1,-1,-1,1
18,23,83,42,11,110.0,6.0,105,18,14,8,2,2,0,0,0,1
19,24,81,41,9,116.0,6.0,105,19,12,7,0,1,-2,-1,-1,0
20,25,81,41,9,122.0,6.0,105,20,12,7,0,1,0,0,0,0
21,26,79,40,7,128.0,4.0,105,21,10,6,10,7,-2,-1,-1,-1
22,28,72,36,0,134.0,6.0,105,22,3,2,3,3,-4,-2,-1,-2
23,29,74,37,2,140.0,6.0,105,23,5,3,5,4,2,1,1,-1
24,30,76,38,4,146.0,6.0,105,24,7,4,7,5,2,1,1,0
25,31,75,38,3,152.0,6.0,105,25,6,4,6,5,-1,0,-1,-1
26,32,76,38,4,158.0,6.0,105,26,7,4,7,5,1,0,1,0
27,33,77,39,5,164.0,2.0,105,27,8,5,8,6,1,1,1,1
28,36,72,36,0,170.0,6.0,105,28,3,2,3,3,1,1,-1,0
29,37,71,35,11,176.0,6.0,105,29,2,1,2,2,-1,-1,-1,-1
30,38,69,34,9,182.0,6.0,105,30,0,0,0,1,-2,-1,-1,-2
31,39,69,34,9,188.0,4.0,105,31,0,0,0,1,0,0,0,-2
32,42,64,31,4,194.0,6.0,105,32,-5,-3,7,5,0,0,-1,-3
33,43,69,34,9,200.0,6.0,105,33,0,0,0,1,5,3,1,-2
34,44,72,36,0,206.0,6.0,105,34,3,2,3,3,3,2,1,-1
35,45,76,38,4,212.0,6.0,105,35,7,4,7,5,4,2,1,0
36,46,76,38,4,218.0,6.0,105,36,7,4,7,5,0,0,0,0
37,47,74,37,2,224.0,4.0,105,37,5,3,5,4,-2,-1,-1,-1
38,49,72,36,0,230.0,6.0,105,38,3,2,3,3,3,2,-1,-2
39,50,71,35,11,236.0,6.0,105,39,2,1,2,2,-1,-1,-1,-3
40,51,69,34,9,242.0,6.0,105,40,0,0,0,1,-2,-1,-1,-4
41,52,72,36,0,248.0,6.0,105,41,3,2,3,3,3,2,1,-3
42,53,76,38,4,254.0,6.0,105,42,7,4,7,5,4,2,1,-2
43,54,79,40,7,260.0,6.0,105,43,10,6,10,7,3,2,1,-1
44,55,79,40,7,266.0,6.0,105,44,10,6,10,7,0,0,0,-1
45,56,79,40,7,272.0,2.0,105,45,10,6,10,7,0,0,0,-1
46,59,76,38,4,278.0,6.0,105,46,7,4,7,5,-1,-1,-1,-2
47,60,76,38,4,284.0,6.0,105,47,7,4,7,5,0,0,0,-2
48,61,84,43,0,290.0,6.0,105,48,15,9,3,3,8,5,1,-1
49,62,83,42,11,296.0,6.0,105,49,14,8,2,2,-1,-1,-1,-2
50,63,83,42,11,302.0,6.0,105,50,14,8,2,2,0,0,0,-2
51,64,81,41,9,308.0,6.0,105,51,12,7,0,1,-2,-1,-1,-3
52,65,81,41,9,314.0,6.0,105,52,12,7,0,1,0,0,0,-3
53,66,79,40,7,320.0,4.0,105,53,10,6,10,7,-2,-1,-1,-4
54,68,72,36,0,326.0,6.0,105,54,3,2,3,3,-4,-2,-1,-5
55,69,74,37,2,332.0,6.0,105,55,5,3,5,4,2,1,1,-4
56,70,76,38,4,338.0,6.0,105,56,7,4,7,5,2,1,1,-3
57,71,75,38,3,344.0,6.0,105,57,6,4,6,5,-1,0,-1,-4
58,72,76,38,4,350.0,6.0,105,58,7,4,7,5,1,0,1,-3
59,73,77,39,5,356.0,2.0,105,59,8,5,8,6,1,1,1,-2
60,76,72,36,0,362.0,6.0,105,60,3,2,3,3,1,1,-1,-3
61,77,71,35,11,368.0,6.0,105,61,2,1,2,2,-1,-1,-1,-4
62,78,69,34,9,374.0,6.0,105,62,0,0,0,1,-2,-1,-1,-5
63,79,69,34,9,380.0,4.0,105,63,0,0,0,1,0,0,0,-5
64,82,77,39,5,386.0,3.0,105,64,8,5,8,6,-2,-1,1,-4
65,85,74,37,2,392.0,1.0,105,65,5,3,5,4,0,0,-1,-5
66,91,76,38,4,398.0,3.0,105,66,7,4,7,5,-5,-3,1,-4
67,94,72,36,0,404.0,2.0,105,67,3,2,3,3,0,0,-1,-5
68,97,74,37,2,410.0,3.0,105,68,5,3,5,4,2,1,1,-4
69,100,71,35,11,416.0,2.0,105,69,2,1,2,2,0,0,-1,-5
70,103,69,34,9,422.0,1.0,105,70,0,0,0,1,-2,-1,-1,-6
71,109,76,38,4,428.0,1.0,105,71,7,4,7,5,2,1,1,-5
72,115,77,39,5,434.0,3.0,105,72,8,5,8,6,1,1,1,-4
73,118,74,37,2,440.0,1.0,105,73,5,3,5,4,0,0,-1,-5
74,124,76,38,4,446.0,3.0,105,74,7,4,7,5,-5,-3,1,-4
75,127,72,36,0,452.0,2.0,105,75,3,2,3,3,0,0,-1,-5
76,130,74,37,2,458.0,3.0,105,76,5,3,5,4,2,1,1,-4
77,133,71,35,11,464.0,2.0,105,77,2,1,2,2,0,0,-1,-5
78,136,69,34,9,470.0,6.0,105,78,0,0,0,1,-2,-1,-1,-6
79,137,69,34,9,476.0,4.0,105,79,0,0,0,1,0,0,0,-6
80,140,64,31,4,482.0,1.0,105,80,-5,-3,7,5,0,0,-1,-7
81,146,69,34,9,488.0,1.0,105,81,0,0,0,1,12,7,1,-6
82,152,72,36,0,494.0,1.0,105,82,3,2,3,3,12,7,1,-5
83,158,76,38,4,500.0,1.0,105,83,7,4,7,5,12,7,1,-4
84,164,76,38,4,506.0,1.0,105,84,7,4,7,5,7,4,0,-4
85,170,74,37,2,512.0,1.0,105,85,5,3,5,4,9,5,-1,-5
86,176,72,36,0,518.0,1.0,105,86,3,2,3,3,8,5,-1,-6
87,182,71,35,11,524.0,1.0,105,87,2,1,2,2,7,4,-1,-7
88,188,69,34,9,530.0,1.0,105,88,0,0,0,1,7,4,-1,-8
89,194,72,36,0,536.0,1.0,105,89,3,2,3,3,12,7,1,-7
90,200,76,38,4,542.0,1.0,105,90,7,4,7,5,12,7,1,-6
91,206,81,41,9,548.0,1.0,105,91,12,7,0,1,12,7,1,-5
92,212,79,40,7,554.0,1.0,105,92,10,6,10,7,7,4,-1,-6
93,218,77,39,5,560.0,1.0,105,93,8,5,8,6,6,4,-1,-7
94,224,76,38,4,566.0,1.0,105,94,7,4,7,5,5,3,-1,-8
95,230,76,38,4,572.0,1.0,105,95,7,4,7,5,8,5,0,-8
96,236,84,43,0,578.0,1.0,105,96,15,9,3,3,16,10,1,-7
97,242,83,42,11,584.0,1.0,105,97,14,8,2,2,7,4,-1,-8
98,248,83,42,11,590.0,1.0,105,98,14,8,2,2,9,5,0,-8
99,254,81,41,9,596.0,1.0,105,99,12,7,0,1,7,4,-1,-9
100,260,81,41,9,602.0,1.0,105,100,12,7,0,1,9,5,0,-9
101,266,79,40,7,608.0,1.0,105,101,10,6,10,7,7,4,-1,-10
102,272,72,36,0,614.0,1.0,105,102,3,2,3,3,3,2,-1,-11
103,278,74,37,2,620.0,1.0,105,103,5,3,5,4,9,5,1,-10
104,284,76,38,4,626.0,1.0,105,104,7,4,7,5,11,6,1,-9
105,290,75,38,3,632.0,1.0,105,105,6,4,6,5,6,4,-1,-10
106,296,76,38,4,638.0,1.0,105,106,7,4,7,5,7,4,1,-9
107,302,77,39,5,644.0,2.0,105,107,8,5,8,6,8,5,1,-8
108,305,72,36,0,650.0,1.0,105,108,3,2,3,3,1,1,-1,-9
109,311,74,37,2,656.0,1.0,105,109,5,3,5,4,-2,-1,1,-8
110,317,69,34,9,662.0,1.0,105,110,0,0,0,1,-2,-1,-1,-9
111,323,81,41,9,668.0,4.0,105,111,12,7,0,1,5,3,1,-8
112,326,64,31,4,674.0,1.0,105,112,-5,-3,7,5,0,0,-1,-9
113,332,69,34,9,680.0,1.0,105,113,0,0,0,1,12,7,1,-8
114,338,72,36,0,686.0,1.0,105,114,3,2,3,3,12,7,1,-7
115,344,76,38,4,692.0,1.0,105,115,7,4,7,5,12,7,1,-6
116,350,76,38,4,698.0,1.0,105,116,7,4,7,5,7,4,0,-6
117,356,74,37,2,704.0,1.0,105,117,5,3,5,4,9,5,-1,-7
118,362,72,36,0,710.0,1.0,105,118,3,2,3,3,8,5,-1,-8
119,368,71,35,11,716.0,1.0,105,119,2,1,2,2,7,4,-1,-9
120,374,69,34,9,722.0,1.0,105,120,0,0,0,1,7,4,-1,-10
121,380,72,36,0,728.0,1.0,105,121,3,2,3,3,12,7,1,-9
122,386,76,38,4,734.0,1.0,105,122,7,4,7,5,12,7,1,-8
123,392,81,41,9,740.0,1.0,105,123,12,7,0,1,12,7,1,-7
124,398,79,40,7,746.0,1.0,105,124,10,6,10,7,7,4,-1,-8
125,404,77,39,5,752.0,1.0,105,125,8,5,8,6,6,4,-1,-9
126,410,76,38,4,758.0,1.0,105,126,7,4,7,5,5,3,-1,-10
127,416,76,38,4,764.0,1.0,105,127,7,4,7,5,8,5,0,-10
128,422,84,43,0,770.0,1.0,105,128,15,9,3,3,16,10,1,-9
129,428,83,42,11,776.0,1.0,105,129,14,8,2,2,7,4,-1,-10
130,434,83,42,11,782.0,1.0,105,130,14,8,2,2,9,5,0,-10
131,440,81,41,9,788.0,1.0,105,131,12,7,0,1,7,4,-1,-11
132,446,81,41,9,794.0,1.0,105,132,12,7,0,1,9,5,0,-11
133,452,79,40,7,800.0,1.0,105,133,10,6,10,7,7,4,-1,-12
134,458,72,36,0,806.0,1.0,105,134,3,2,3,3,3,2,-1,-13
135,464,74,37,2,812.0,1.0,105,135,5,3,5,4,9,5,1,-12
136,470,76,38,4,818.0,1.0,105,136,7,4,7,5,11,6,1,-11
137,476,75,38,3,824.0,1.0,105,137,6,4,6,5,6,4,-1,-12
138,482,76,38,4,830.0,1.0,105,138,7,4,7,5,7,4,1,-11
139,488,77,39,5,836.0,2.0,105,139,8,5,8,6,8,5,1,-10
140,491,72,36,0,842.0,1.0,105,140,3,2,3,3,1,1,-1,-11
141,497,74,37,2,848.0,1.0,105,141,5,3,5,4,-2,-1,1,-10
142,503,69,34,9,854.0,1.0,105,142,0,0,0,1,-2,-1,-1,-11
143,509,81,41,9,860.0,4.0,105,143,12,7,0,1,5,3,1,-10
