,index,midi_note_num,diatonic_note_num,chromatic_pitch_class,onset,duration,velocity,bar_count,relative_chromatic_pitch,relative_diatonic_pitch,chromatic_scale_degree,diatonic_scale_degree,chromatic_interval,diatonic_interval,parsons_code,parsons_cumsum
0,0,69,34,9,0.0,1.0,105,0,2,1,2,2,0,0,0,0
1,5,67,33,7,3.0,1.0,95,0,0,0,0,1,-2,-1,-1,-1
2,8,69,34,9,6.0,2.0,105,1,2,1,2,2,7,4,1,0
3,10,67,33,7,9.0,1.0,95,1,0,0,0,1,-2,-1,-1,-1
4,13,64,31,4,12.0,1.0,105,2,-3,-2,9,6,2,1,-1,-2
5,16,67,33,7,15.0,1.0,95,2,0,0,0,1,7,4,1,-1
6,19,64,31,4,18.0,1.0,105,3,-3,-2,9,6,4,2,-1,-2
7,22,64,31,4,21.0,1.0,95,3,-3,-2,9,6,4,2,0,-2
8,25,69,34,9,24.0,1.0,105,4,2,1,2,2,2,1,1,-1
9,30,67,33,7,27.0,1.0,95,4,0,0,0,1,-2,-1,-1,-2
10,33,69,34,9,30.0,2.0,105,5,2,1,2,2,7,4,1,-1
11,35,67,33,7,33.0,1.0,95,5,0,0,0,1,-2,-1,-1,-2
12,38,64,31,4,36.0,1.0,105,6,-3,-2,9,6,2,1,-1,-3
13,41,67,33,7,39.0,1.0,95,6,0,0,0,1,7,4,1,-2
14,44,64,31,4,42.0,1.0,105,7,-3,-2,9,6,4,2,-1,-3
15,47,62,30,2,45.0,1.0,95,7,-5,-3,7,5,2,1,-1,-4
16,52,69,34,9,48.0,1.0,105,8,2,1,2,2,7,4,1,-3
17,57,67,33,7,51.0,1.0,95,8,0,0,0,1,-2,-1,-1,-4
18,60,69,34,9,54.0,2.0,105,9,2,1,2,2,7,4,1,-3
19,62,67,33,7,57.0,1.0,95,9,0,0,0,1,-2,-1,-1,-4
20,65,64,31,4,60.0,1.0,105,10,-3,-2,9,6,2,1,-1,-5
21,68,67,33,7,63.0,1.0,95,10,0,0,0,1,7,4,1,-4
22,71,64,31,4,66.0,1.0,105,11,-3,-2,9,6,4,2,-1,-5
23,74,64,31,4,69.0,1.0,95,11,-3,-2,9,6,4,2,0,-5
24,77,69,34,9,72.0,1.0,105,12,2,1,2,2,2,1,1,-4
25,82,67,33,7,75.0,1.0,95,12,0,0,0,1,-2,-1,-1,-5
26,85,69,34,9,78.0,2.0,105,13,2,1,2,2,7,4,1,-4
27,87,67,33,7,81.0,1.0,95,13,0,0,0,1,-2,-1,-1,-5
28,90,64,31,4,84.0,1.0,105,14,-3,-2,9,6,2,1,-1,-6
29,93,67,33,7,87.0,1.0,95,14,0,0,0,1,7,4,1,-5
30,96,64,31,4,90.0,1.0,105,15,-3,-2,9,6,4,2,-1,-6
31,99,62,30,2,93.0,1.0,95,15,-5,-3,7,5,2,1,-1,-7
32,104,69,34,9,96.0,1.0,105,16,2,1,2,2,7,4,1,-6
33,107,74,37,2,99.0,2.0,95,16,7,4,7,5,0,0,1,-5
34,109,69,34,9,102.0,1.0,105,17,2,1,2,2,-3,-2,-1,-6
35,112,72,36,0,105.0,1.0,95,17,5,3,5,4,-2,-1,1,-5
36,115,64,31,4,108.0,1.0,105,18,-3,-2,9,6,-3,-2,-1,-6
37,118,67,33,7,111.0,1.0,95,18,0,0,0,1,7,4,1,-5
38,121,64,31,4,114.0,1.0,105,19,-3,-2,9,6,4,2,-1,-6
39,124,64,31,4,117.0,1.0,95,19,-3,-2,9,6,4,2,0,-6
40,127,69,34,9,120.0,1.0,105,20,2,1,2,2,2,1,1,-5
41,130,62,30,2,123.0,1.0,95,20,-5,-3,7,5,-12,-7,-1,-6
42,134,72,36,0,129.0,1.0,95,20,5,3,5,4,-2,-1,1,-5
43,137,64,31,4,132.0,1.0,105,21,-3,-2,9,6,-3,-2,-1,-6
44,140,67,33,7,135.0,1.0,95,21,0,0,0,1,7,4,1,-5
45,143,64,31,4,138.0,1.0,105,22,-3,-2,9,6,4,2,-1,-6
46,146,62,30,2,141.0,1.0,95,22,-5,-3,7,5,2,1,-1,-7
47,151,69,34,9,144.0,1.0,105,23,2,1,2,2,7,4,1,-6
48,154,74,37,2,147.0,2.0,95,23,7,4,7,5,0,0,1,-5
49,156,69,34,9,150.0,1.0,105,24,2,1,2,2,-3,-2,-1,-6
50,159,72,36,0,153.0,1.0,95,24,5,3,5,4,-2,-1,1,-5
51,162,64,31,4,156.0,1.0,105,25,-3,-2,9,6,-3,-2,-1,-6
52,165,67,33,7,159.0,1.0,95,25,0,0,0,1,7,4,1,-5
53,168,64,31,4,162.0,1.0,105,26,-3,-2,9,6,4,2,-1,-6
54,171,64,31,4,165.0,1.0,95,26,-3,-2,9,6,4,2,0,-6
55,174,69,34,9,168.0,1.0,105,27,2,1,2,2,2,1,1,-5
56,177,62,30,2,171.0,1.0,95,27,-5,-3,7,5,-12,-7,-1,-6
57,181,72,36,0,177.0,1.0,95,27,5,3,5,4,-2,-1,1,-5
58,184,64,31,4,180.0,1.0,105,28,-3,-2,9,6,-3,-2,-1,-6
59,187,67,33,7,183.0,1.0,95,28,0,0,0,1,7,4,1,-5
60,190,64,31,4,186.0,1.0,105,29,-3,-2,9,6,4,2,-1,-6
61,193,62,30,2,189.0,1.0,95,29,-5,-3,7,5,2,1,-1,-7
62,198,76,38,4,192.0,1.0,105,30,9,5,9,6,14,8,1,-6
63,201,81,41,9,195.0,2.0,95,30,14,8,2,2,0,0,1,-5
64,203,76,38,4,198.0,1.0,105,31,9,5,9,6,-3,-2,-1,-6
65,206,79,40,7,201.0,1.0,95,31,12,7,0,1,-2,-1,1,-5
66,209,71,35,11,204.0,1.0,105,32,4,2,4,3,-3,-2,-1,-6
67,212,62,30,2,207.0,1.0,95,32,-5,-3,7,5,-5,-3,-1,-7
68,215,71,35,11,210.0,1.0,105,33,4,2,4,3,4,2,1,-6
69,218,74,37,2,213.0,1.0,95,33,7,4,7,5,3,2,1,-5
70,221,76,38,4,216.0,1.0,105,34,9,5,9,6,2,1,1,-4
71,224,81,41,9,219.0,2.0,95,34,14,8,2,2,0,0,1,-3
72,226,76,38,4,222.0,1.0,105,35,9,5,9,6,-3,-2,-1,-4
73,229,79,40,7,225.0,1.0,95,35,12,7,0,1,-2,-1,1,-3
74,232,71,35,11,228.0,1.0,105,36,4,2,4,3,-3,-2,-1,-4
75,235,62,30,2,231.0,1.0,95,36,-5,-3,7,5,-5,-3,-1,-5
76,238,71,35,11,234.0,1.0,105,37,4,2,4,3,4,2,1,-4
77,241,69,34,9,237.0,1.0,95,37,2,1,2,2,0,0,-1,-5
78,244,76,38,4,240.0,1.0,105,38,9,5,9,6,2,1,1,-4
79,247,81,41,9,243.0,2.0,95,38,14,8,2,2,0,0,1,-3
80,249,76,38,4,246.0,1.0,105,39,9,5,9,6,-3,-2,-1,-4
81,252,79,40,7,249.0,1.0,95,39,12,7,0,1,-2,-1,1,-3
82,255,71,35,11,252.0,1.0,105,40,4,2,4,3,-3,-2,-1,-4
83,258,62,30,2,255.0,1.0,95,40,-5,-3,7,5,-5,-3,-1,-5
84,261,71,35,11,258.0,1.0,105,41,4,2,4,3,4,2,1,-4
85,264,74,37,2,261.0,1.0,95,41,7,4,7,5,3,2,1,-3
86,267,76,38,4,264.0,1.0,105,42,9,5,9,6,2,1,1,-2
87,270,81,41,9,267.0,2.0,95,42,14,8,2,2,0,0,1,-1
88,272,76,38,4,270.0,1.0,105,43,9,5,9,6,-3,-2,-1,-2
89,275,79,40,7,273.0,1.0,95,43,12,7,0,1,-2,-1,1,-1
90,278,71,35,11,276.0,1.0,105,44,4,2,4,3,-3,-2,-1,-2
91,281,62,30,2,279.0,1.0,95,44,-5,-3,7,5,-5,-3,-1,-3
92,284,71,35,11,282.0,1.0,105,45,4,2,4,3,4,2,1,-2
93,287,69,34,9,285.0,1.0,95,45,2,1,2,2,0,0,-1,-3
94,290,76,38,4,288.0,1.0,105,46,9,5,9,6,2,1,1,-2
95,293,74,37,2,291.0,1.0,95,46,7,4,7,5,-2,-1,-1,-3
96,296,76,38,4,294.0,1.0,105,47,9,5,9,6,7,4,1,-2
97,299,74,37,2,297.0,2.0,95,47,7,4,7,5,-2,-1,-1,-3
98,301,71,35,11,300.0,1.0,105,48,4,2,4,3,-1,-1,-1,-4
99,304,62,30,2,303.0,1.0,95,48,-5,-3,7,5,-5,-3,-1,-5
100,307,71,35,11,306.0,1.0,105,49,4,2,4,3,4,2,1,-4
101,310,74,37,2,309.0,1.0,95,49,7,4,7,5,3,2,1,-3
102,313,76,38,4,312.0,1.0,105,50,9,5,9,6,2,1,1,-2
103,316,74,37,2,315.0,1.0,95,50,7,4,7,5,-2,-1,-1,-3
104,319,76,38,4,318.0,1.0,105,51,9,5,9,6,7,4,1,-2
105,322,74,37,2,321.0,2.0,95,51,7,4,7,5,-2,-1,-1,-3
106,324,71,35,11,324.0,1.0,105,52,4,2,4,3,-1,-1,-1,-4
107,327,62,30,2,327.0,1.0,95,52,-5,-3,7,5,-5,-3,-1,-5
108,330,71,35,11,330.0,1.0,105,53,4,2,4,3,4,2,1,-4
109,333,69,34,9,333.0,1.0,95,53,2,1,2,2,0,0,-1,-5
110,336,76,38,4,336.0,1.0,105,54,9,5,9,6,2,1,1,-4
111,339,74,37,2,339.0,1.0,95,54,7,4,7,5,-2,-1,-1,-5
112,342,76,38,4,342.0,1.0,105,55,9,5,9,6,7,4,1,-4
113,345,74,37,2,345.0,2.0,95,55,7,4,7,5,-2,-1,-1,-5
114,347,71,35,11,348.0,1.0,105,56,4,2,4,3,-1,-1,-1,-6
115,350,62,30,2,351.0,1.0,95,56,-5,-3,7,5,-5,-3,-1,-7
116,353,71,35,11,354.0,1.0,105,57,4,2,4,3,4,2,1,-6
117,356,74,37,2,357.0,1.0,95,57,7,4,7,5,3,2,1,-5
118,359,76,38,4,360.0,1.0,105,58,9,5,9,6,2,1,1,-4
119,362,74,37,2,363.0,1.0,95,58,7,4,7,5,-2,-1,-1,-5
120,365,76,38,4,366.0,1.0,105,59,9,5,9,6,7,4,1,-4
121,368,74,37,2,369.0,2.0,95,59,7,4,7,5,-2,-1,-1,-5
122,370,71,35,11,372.0,1.0,105,60,4,2,4,3,-1,-1,-1,-6
123,373,62,30,2,375.0,1.0,95,60,-5,-3,7,5,-5,-3,-1,-7
124,376,71,35,11,378.0,1.0,105,61,4,2,4,3,4,2,1,-6
125,379,69,34,9,381.0,3.0,95,61,2,1,2,2,0,0,-1,-7
