,index,midi_note_num,diatonic_note_num,chromatic_pitch_class,onset,duration,velocity,bar_count,relative_chromatic_pitch,relative_diatonic_pitch,chromatic_scale_degree,diatonic_scale_degree,chromatic_interval,diatonic_interval,parsons_code,parsons_cumsum
0,0,64,31,4,0.0,0.5,105,0,0,0,0,1,0,0,0,0
1,4,71,35,11,2.0,1.0,105,1,7,4,7,5,-3,-2,1,1
2,7,69,34,9,4.0,0.5,105,2,5,3,5,4,2,1,-1,0
3,11,71,35,11,6.0,1.0,105,3,7,4,7,5,-5,-3,1,1
4,14,69,34,9,8.0,0.5,105,4,5,3,5,4,-2,-1,-1,0
5,18,64,31,4,10.0,0.5,105,5,0,0,0,1,2,1,-1,-1
6,22,71,35,11,12.0,1.0,105,6,7,4,7,5,-3,-2,1,0
7,25,69,34,9,14.0,0.5,105,7,5,3,5,4,2,1,-1,-1
8,29,71,35,11,16.0,0.5,105,8,7,4,7,5,-5,-3,1,0
9,33,71,35,11,18.0,1.0,105,9,7,4,7,5,2,1,0,0
10,39,71,35,11,22.0,1.0,105,10,7,4,7,5,-3,-2,0,0
11,42,69,34,9,24.0,0.5,105,11,5,3,5,4,2,1,-1,-1
12,46,71,35,11,26.0,1.0,105,12,7,4,7,5,-5,-3,1,0
13,49,69,34,9,28.0,0.5,105,13,5,3,5,4,-2,-1,-1,-1
14,53,64,31,4,30.0,0.5,105,14,0,0,0,1,2,1,-1,-2
15,57,71,35,11,32.0,1.0,105,15,7,4,7,5,-3,-2,1,-1
16,60,69,34,9,34.0,0.5,105,16,5,3,5,4,2,1,-1,-2
17,64,71,35,11,36.0,0.5,105,17,7,4,7,5,-5,-3,1,-1
18,68,71,35,11,38.0,1.0,105,18,7,4,7,5,2,1,0,-1
19,73,81,41,9,42.0,0.5,105,19,17,10,5,4,5,3,1,0
20,76,81,41,9,44.0,0.5,105,20,17,10,5,4,3,2,0,0
21,79,76,38,4,46.0,0.5,105,21,12,7,0,1,-2,-1,-1,-1
22,83,74,37,2,48.0,0.5,105,22,10,6,10,7,-2,-1,-1,-2
23,87,71,35,11,50.0,0.5,105,23,7,4,7,5,4,2,-1,-3
24,90,81,41,9,52.0,0.5,105,24,17,10,5,4,5,3,1,-2
25,93,81,41,9,54.0,0.5,105,25,17,10,5,4,3,2,0,-2
26,96,76,38,4,56.0,0.5,105,26,12,7,0,1,-2,-1,-1,-3
27,100,69,34,9,58.0,1.0,105,27,5,3,5,4,-2,-1,-1,-4
28,105,81,41,9,62.0,0.5,105,28,17,10,5,4,5,3,1,-3
29,108,81,41,9,64.0,0.5,105,29,17,10,5,4,3,2,0,-3
30,111,76,38,4,66.0,0.5,105,30,12,7,0,1,-2,-1,-1,-4
31,115,74,37,2,68.0,0.5,105,31,10,6,10,7,-2,-1,-1,-5
32,119,71,35,11,70.0,0.5,105,32,7,4,7,5,4,2,-1,-6
33,122,71,35,11,72.0,0.5,105,33,7,4,7,5,-5,-3,0,-6
34,126,81,41,9,74.0,0.5,105,34,17,10,5,4,-2,-1,1,-5
35,130,81,41,9,76.0,0.5,105,35,17,10,5,4,-2,-1,0,-5
36,134,76,38,4,78.0,0.5,105,36,12,7,0,1,5,3,-1,-6
37,138,69,34,9,80.0,1.0,105,37,5,3,5,4,-2,-1,-1,-7
38,144,71,35,11,84.0,0.5,105,38,7,4,7,5,-3,-2,1,-6
39,148,69,34,9,86.0,0.5,105,39,5,3,5,4,2,1,-1,-7
40,152,71,35,11,88.0,0.5,105,40,7,4,7,5,-5,-3,1,-6
41,156,69,34,9,90.0,0.5,105,41,5,3,5,4,-2,-1,-1,-7
42,160,64,31,4,92.0,0.5,105,42,0,0,0,1,2,1,-1,-8
43,164,71,35,11,94.0,0.5,105,43,7,4,7,5,-3,-2,1,-7
44,168,69,34,9,96.0,0.5,105,44,5,3,5,4,2,1,-1,-8
45,172,71,35,11,98.0,0.5,105,45,7,4,7,5,-5,-3,1,-7
46,176,69,34,9,100.0,0.5,105,46,5,3,5,4,0,0,-1,-8
47,183,71,35,11,104.0,0.5,105,47,7,4,7,5,-3,-2,1,-7
48,187,69,34,9,106.0,0.5,105,48,5,3,5,4,2,1,-1,-8
49,191,71,35,11,108.0,0.5,105,49,7,4,7,5,-5,-3,1,-7
50,195,69,34,9,110.0,0.5,105,50,5,3,5,4,-2,-1,-1,-8
51,199,64,31,4,112.0,0.5,105,51,0,0,0,1,2,1,-1,-9
52,203,71,35,11,114.0,0.5,105,52,7,4,7,5,-3,-2,1,-8
53,207,69,34,9,116.0,0.5,105,53,5,3,5,4,2,1,-1,-9
54,211,71,35,11,118.0,0.5,105,54,7,4,7,5,-5,-3,1,-8
55,215,69,34,9,120.0,0.5,105,55,5,3,5,4,0,0,-1,-9
56,221,71,35,11,124.0,0.5,105,56,7,4,7,5,-3,-2,1,-8
57,225,69,34,9,126.0,0.5,105,57,5,3,5,4,-2,-1,-1,-9
58,229,71,35,11,128.0,0.5,105,58,7,4,7,5,-3,-2,1,-8
59,233,69,34,9,130.0,0.5,105,59,5,3,5,4,-2,-1,-1,-9
60,237,64,31,4,132.0,0.5,105,60,0,0,0,1,2,1,-1,-10
61,241,71,35,11,134.0,0.5,105,61,7,4,7,5,-3,-2,1,-9
62,245,69,34,9,136.0,0.5,105,62,5,3,5,4,2,1,-1,-10
63,249,71,35,11,138.0,0.5,105,63,7,4,7,5,-5,-3,1,-9
64,253,69,34,9,140.0,0.5,105,64,5,3,5,4,0,0,-1,-10
65,259,71,35,11,144.0,0.5,105,65,7,4,7,5,-3,-2,1,-9
66,263,69,34,9,146.0,0.5,105,66,5,3,5,4,-2,-1,-1,-10
67,267,71,35,11,148.0,0.5,105,67,7,4,7,5,-3,-2,1,-9
68,271,69,34,9,150.0,0.5,105,68,5,3,5,4,-2,-1,-1,-10
69,275,64,31,4,152.0,0.5,105,69,0,0,0,1,2,1,-1,-11
70,279,71,35,11,154.0,0.5,105,70,7,4,7,5,-3,-2,1,-10
71,283,69,34,9,156.0,0.5,105,71,5,3,5,4,2,1,-1,-11
72,287,71,35,11,158.0,0.5,105,72,7,4,7,5,-5,-3,1,-10
73,291,69,34,9,160.0,0.5,105,73,5,3,5,4,0,0,-1,-11
