,index,midi_note_num,diatonic_note_num,chromatic_pitch_class,onset,duration,velocity,bar_count,relative_chromatic_pitch,relative_diatonic_pitch,chromatic_scale_degree,diatonic_scale_degree,chromatic_interval,diatonic_interval,parsons_code,parsons_cumsum
0,0,67,33,7,0.0,4.0,105,0,0,0,0,1,0,0,0,0
1,1,74,37,2,4.0,4.0,95,0,7,4,7,5,7,4,1,1
2,2,71,35,11,8.0,2.0,105,1,4,2,4,3,-3,-2,-1,0
3,5,67,33,7,12.0,2.0,95,1,0,0,0,1,-4,-2,-1,-1
4,8,72,36,0,16.0,2.0,105,2,5,3,5,4,1,1,1,0
5,10,69,34,9,20.0,2.0,95,2,2,1,2,2,-2,-1,-1,-1
6,12,66,32,6,24.0,1.0,105,3,-1,-1,11,7,-1,-1,-1,-2
7,16,62,30,2,28.0,3.0,95,3,-5,-3,7,5,-4,-2,-1,-3
8,18,64,31,4,32.0,4.0,105,4,-3,-2,9,6,2,1,1,-2
9,19,66,32,6,36.0,4.0,95,4,-1,-1,11,7,2,1,1,-1
10,20,67,33,7,40.0,1.0,105,5,0,0,0,1,1,1,1,0
11,24,67,33,7,44.0,2.0,95,5,0,0,0,1,-2,-1,0,0
12,26,71,35,11,48.0,2.0,105,6,4,2,4,3,-1,-1,1,1
13,29,69,34,9,52.0,2.0,95,6,2,1,2,2,2,1,-1,0
14,32,67,33,7,56.0,4.0,105,7,0,0,0,1,1,1,-1,-1
15,33,67,33,7,60.0,4.0,95,7,0,0,0,1,0,0,0,-1
16,34,67,33,7,64.0,4.0,105,8,0,0,0,1,0,0,0,-1
17,35,74,37,2,68.0,4.0,95,8,7,4,7,5,7,4,1,0
18,36,71,35,11,72.0,2.0,105,9,4,2,4,3,-3,-2,-1,-1
19,39,67,33,7,76.0,2.0,95,9,0,0,0,1,-4,-2,-1,-2
20,42,72,36,0,80.0,2.0,105,10,5,3,5,4,1,1,1,-1
21,44,69,34,9,84.0,2.0,95,10,2,1,2,2,-2,-1,-1,-2
22,46,66,32,6,88.0,1.0,105,11,-1,-1,11,7,-1,-1,-1,-3
23,50,62,30,2,92.0,3.0,95,11,-5,-3,7,5,-4,-2,-1,-4
24,52,64,31,4,96.0,4.0,105,12,-3,-2,9,6,2,1,1,-3
25,53,66,32,6,100.0,4.0,95,12,-1,-1,11,7,2,1,1,-2
26,54,67,33,7,104.0,1.0,105,13,0,0,0,1,1,1,1,-1
27,58,67,33,7,108.0,2.0,95,13,0,0,0,1,-2,-1,0,-1
28,60,71,35,11,112.0,2.0,105,14,4,2,4,3,-1,-1,1,0
29,63,69,34,9,116.0,2.0,95,14,2,1,2,2,2,1,-1,-1
30,66,67,33,7,120.0,4.0,105,15,0,0,0,1,1,1,-1,-2
31,67,67,33,7,124.0,4.0,95,15,0,0,0,1,0,0,0,-2
32,68,74,37,2,128.0,1.0,105,16,7,4,7,5,7,4,1,-1
33,72,71,35,11,132.0,2.0,95,16,4,2,4,3,-1,-1,-1,-2
34,74,74,37,2,136.0,1.0,105,17,7,4,7,5,0,0,1,-1
35,78,71,35,11,140.0,2.0,95,17,4,2,4,3,-1,-1,-1,-2
36,80,76,38,4,144.0,2.0,105,18,9,5,9,6,2,1,1,-1
37,82,76,38,4,148.0,2.0,95,18,9,5,9,6,2,1,0,-1
38,84,79,40,7,152.0,4.0,105,19,12,7,0,1,1,1,1,0
39,85,74,37,2,156.0,2.0,95,19,7,4,7,5,-5,-3,-1,-1
40,88,79,40,7,160.0,2.0,105,20,12,7,0,1,1,1,1,0
41,91,74,37,2,164.0,2.0,95,20,7,4,7,5,-2,-1,-1,-1
42,94,76,38,4,168.0,2.0,105,21,9,5,9,6,5,3,1,0
43,97,71,35,11,172.0,2.0,95,21,4,2,4,3,-1,-1,-1,-1
44,100,72,36,0,176.0,2.0,105,22,5,3,5,4,1,1,1,0
45,102,69,34,9,180.0,2.0,95,22,2,1,2,2,-2,-1,-1,-1
46,104,66,32,6,184.0,2.0,105,23,-1,-1,11,7,-1,-1,-1,-2
47,107,62,30,2,188.0,2.0,95,23,-5,-3,7,5,-4,-2,-1,-3
48,109,64,31,4,192.0,4.0,105,24,-3,-2,9,6,2,1,1,-2
49,110,66,32,6,196.0,4.0,95,24,-1,-1,11,7,2,1,1,-1
50,111,67,33,7,200.0,1.0,105,25,0,0,0,1,1,1,1,0
51,115,67,33,7,204.0,2.0,95,25,0,0,0,1,-2,-1,0,0
52,117,71,35,11,208.0,2.0,105,26,4,2,4,3,-1,-1,1,1
53,120,69,34,9,212.0,2.0,95,26,2,1,2,2,2,1,-1,0
54,123,67,33,7,216.0,4.0,105,27,0,0,0,1,1,1,-1,-1
55,124,67,33,7,220.0,4.0,95,27,0,0,0,1,0,0,0,-1
56,125,74,37,2,224.0,1.0,105,28,7,4,7,5,7,4,1,0
57,129,71,35,11,228.0,2.0,95,28,4,2,4,3,-1,-1,-1,-1
58,131,74,37,2,232.0,1.0,105,29,7,4,7,5,0,0,1,0
59,135,71,35,11,236.0,2.0,95,29,4,2,4,3,-1,-1,-1,-1
60,137,76,38,4,240.0,2.0,105,30,9,5,9,6,2,1,1,0
61,139,76,38,4,244.0,2.0,95,30,9,5,9,6,2,1,0,0
62,141,79,40,7,248.0,4.0,105,31,12,7,0,1,1,1,1,1
63,142,74,37,2,252.0,2.0,95,31,7,4,7,5,-5,-3,-1,0
64,145,79,40,7,256.0,2.0,105,32,12,7,0,1,1,1,1,1
65,148,74,37,2,260.0,2.0,95,32,7,4,7,5,-2,-1,-1,0
66,151,76,38,4,264.0,2.0,105,33,9,5,9,6,5,3,1,1
67,154,71,35,11,268.0,2.0,95,33,4,2,4,3,-1,-1,-1,0
68,157,72,36,0,272.0,2.0,105,34,5,3,5,4,1,1,1,1
69,159,69,34,9,276.0,2.0,95,34,2,1,2,2,-2,-1,-1,0
70,161,66,32,6,280.0,2.0,105,35,-1,-1,11,7,-1,-1,-1,-1
71,164,62,30,2,284.0,2.0,95,35,-5,-3,7,5,-4,-2,-1,-2
72,166,64,31,4,288.0,4.0,105,36,-3,-2,9,6,2,1,1,-1
73,167,66,32,6,292.0,4.0,95,36,-1,-1,11,7,2,1,1,0
74,168,67,33,7,296.0,1.0,105,37,0,0,0,1,1,1,1,1
75,172,67,33,7,300.0,2.0,95,37,0,0,0,1,-2,-1,0,1
76,174,71,35,11,304.0,2.0,105,38,4,2,4,3,-1,-1,1,2
77,177,69,34,9,308.0,2.0,95,38,2,1,2,2,2,1,-1,1
78,180,67,33,7,312.0,4.0,105,39,0,0,0,1,1,1,-1,0
79,181,67,33,7,316.0,4.0,95,39,0,0,0,1,0,0,0,0
