,index,midi_note_num,diatonic_note_num,chromatic_pitch_class,onset,duration,velocity,bar_count,relative_chromatic_pitch,relative_diatonic_pitch,chromatic_scale_degree,diatonic_scale_degree,chromatic_interval,diatonic_interval,parsons_code,parsons_cumsum
0,0,67,33,7,0.0,2.0,105,0,0,0,0,1,0,0,0,0
1,2,71,35,11,3.0,2.0,95,0,4,2,4,3,2,1,1,1
2,4,74,37,2,6.0,1.0,105,1,7,4,7,5,2,1,1,2
3,7,76,38,4,9.0,1.0,95,1,9,5,9,6,2,1,1,3
4,10,67,33,7,12.0,2.0,105,2,0,0,0,1,-12,-7,-1,2
5,12,71,35,11,15.0,2.0,95,2,4,2,4,3,2,1,1,3
6,14,74,37,2,18.0,1.0,105,3,7,4,7,5,2,1,1,4
7,17,69,34,9,21.0,1.0,95,3,2,1,2,2,2,1,-1,3
8,20,64,31,4,24.0,2.0,105,4,-3,-2,9,6,2,1,-1,2
9,22,60,29,0,27.0,1.0,95,4,-7,-4,5,4,0,0,-1,1
10,25,66,32,6,30.0,2.0,105,5,-1,-1,11,7,-1,-1,1,2
11,27,62,30,2,33.0,2.0,95,5,-5,-3,7,5,0,0,-1,1
12,29,71,35,11,36.0,1.0,105,6,4,2,4,3,-1,-1,1,2
13,32,72,36,0,39.0,1.0,95,6,5,3,5,4,1,1,1,3
14,35,67,33,7,42.0,3.0,105,7,0,0,0,1,1,1,-1,2
15,36,55,26,7,45.0,3.0,95,7,-12,-7,0,1,-12,-7,-1,1
16,37,67,33,7,48.0,2.0,105,8,0,0,0,1,12,7,1,2
17,39,71,35,11,51.0,2.0,95,8,4,2,4,3,2,1,1,3
18,41,74,37,2,54.0,1.0,105,9,7,4,7,5,2,1,1,4
19,44,76,38,4,57.0,1.0,95,9,9,5,9,6,2,1,1,5
20,47,67,33,7,60.0,2.0,105,10,0,0,0,1,-12,-7,-1,4
21,49,71,35,11,63.0,2.0,95,10,4,2,4,3,2,1,1,5
22,51,74,37,2,66.0,1.0,105,11,7,4,7,5,2,1,1,6
23,54,69,34,9,69.0,1.0,95,11,2,1,2,2,2,1,-1,5
24,57,64,31,4,72.0,2.0,105,12,-3,-2,9,6,2,1,-1,4
25,59,60,29,0,75.0,1.0,95,12,-7,-4,5,4,0,0,-1,3
26,62,66,32,6,78.0,2.0,105,13,-1,-1,11,7,-1,-1,1,4
27,64,62,30,2,81.0,2.0,95,13,-5,-3,7,5,0,0,-1,3
28,66,71,35,11,84.0,1.0,105,14,4,2,4,3,-1,-1,1,4
29,69,72,36,0,87.0,1.0,95,14,5,3,5,4,1,1,1,5
30,72,67,33,7,90.0,3.0,105,15,0,0,0,1,1,1,-1,4
31,73,55,26,7,93.0,3.0,95,15,-12,-7,0,1,-12,-7,-1,3
32,74,74,37,2,96.0,2.0,105,16,7,4,7,5,19,11,1,4
33,76,78,39,6,99.0,2.0,95,16,11,6,11,7,2,1,1,5
34,78,81,41,9,102.0,1.0,105,17,14,8,2,2,2,1,1,6
35,81,76,38,4,105.0,1.0,95,17,9,5,9,6,2,1,-1,5
36,84,78,39,6,108.0,1.0,105,18,11,6,11,7,9,5,1,6
37,87,76,38,4,111.0,1.0,95,18,9,5,9,6,-2,-1,-1,5
38,90,78,39,6,114.0,1.0,105,19,11,6,11,7,2,1,1,6
39,93,76,38,4,117.0,1.0,95,19,9,5,9,6,-2,-1,-1,5
40,96,71,35,11,120.0,2.0,105,20,4,2,4,3,2,1,-1,4
41,98,67,33,7,123.0,1.0,95,20,0,0,0,1,0,0,-1,3
42,101,73,36,1,126.0,2.0,105,21,6,3,6,4,-1,-1,1,4
43,103,69,34,9,129.0,1.0,95,21,2,1,2,2,0,0,-1,3
44,106,71,35,11,132.0,1.0,105,22,4,2,4,3,2,1,1,4
45,109,73,36,1,135.0,1.0,95,22,6,3,6,4,2,1,1,5
46,112,74,37,2,138.0,3.0,105,23,7,4,7,5,1,1,1,6
47,113,74,37,2,141.0,3.0,95,23,7,4,7,5,0,0,0,6
48,114,74,37,2,144.0,2.0,105,24,7,4,7,5,0,0,0,6
49,116,78,39,6,147.0,2.0,95,24,11,6,11,7,2,1,1,7
50,118,81,41,9,150.0,1.0,105,25,14,8,2,2,2,1,1,8
51,121,76,38,4,153.0,1.0,95,25,9,5,9,6,2,1,-1,7
52,124,78,39,6,156.0,1.0,105,26,11,6,11,7,9,5,1,8
53,127,76,38,4,159.0,1.0,95,26,9,5,9,6,-2,-1,-1,7
54,130,78,39,6,162.0,1.0,105,27,11,6,11,7,2,1,1,8
55,133,76,38,4,165.0,1.0,95,27,9,5,9,6,-2,-1,-1,7
56,136,71,35,11,168.0,2.0,105,28,4,2,4,3,2,1,-1,6
57,138,67,33,7,171.0,1.0,95,28,0,0,0,1,0,0,-1,5
58,141,73,36,1,174.0,2.0,105,29,6,3,6,4,-1,-1,1,6
59,143,69,34,9,177.0,1.0,95,29,2,1,2,2,0,0,-1,5
60,146,71,35,11,180.0,1.0,105,30,4,2,4,3,2,1,1,6
61,149,73,36,1,183.0,1.0,95,30,6,3,6,4,2,1,1,7
62,152,74,37,2,186.0,3.0,105,31,7,4,7,5,1,1,1,8
63,153,74,37,2,189.0,3.0,95,31,7,4,7,5,0,0,0,8
64,154,71,35,11,192.0,2.0,105,32,4,2,4,3,-3,-2,-1,7
65,156,79,40,7,195.0,1.0,95,32,12,7,0,1,0,0,1,8
66,159,71,35,11,198.0,2.0,105,33,4,2,4,3,0,0,-1,7
67,161,79,40,7,201.0,1.0,95,33,12,7,0,1,0,0,1,8
68,164,69,34,9,204.0,2.0,105,34,2,1,2,2,-2,-1,-1,7
69,166,69,34,9,207.0,1.0,95,34,2,1,2,2,0,0,0,7
70,169,71,35,11,210.0,2.0,105,35,4,2,4,3,-1,-1,1,8
71,171,69,34,9,213.0,1.0,95,35,2,1,2,2,2,1,-1,7
72,174,64,31,4,216.0,2.0,105,36,-3,-2,9,6,2,1,-1,6
73,176,60,29,0,219.0,1.0,95,36,-7,-4,5,4,0,0,-1,5
74,179,66,32,6,222.0,2.0,105,37,-1,-1,11,7,-1,-1,1,6
75,181,62,30,2,225.0,2.0,95,37,-5,-3,7,5,0,0,-1,5
76,183,71,35,11,228.0,1.0,105,38,4,2,4,3,-1,-1,1,6
77,186,72,36,0,231.0,1.0,95,38,5,3,5,4,1,1,1,7
78,189,67,33,7,234.0,3.0,105,39,0,0,0,1,1,1,-1,6
79,190,55,26,7,237.0,3.0,95,39,-12,-7,0,1,-12,-7,-1,5
80,191,71,35,11,240.0,2.0,105,40,4,2,4,3,16,9,1,6
81,193,79,40,7,243.0,1.0,95,40,12,7,0,1,0,0,1,7
82,196,71,35,11,246.0,2.0,105,41,4,2,4,3,0,0,-1,6
83,198,79,40,7,249.0,1.0,95,41,12,7,0,1,0,0,1,7
84,201,69,34,9,252.0,2.0,105,42,2,1,2,2,-2,-1,-1,6
85,203,69,34,9,255.0,1.0,95,42,2,1,2,2,0,0,0,6
86,206,71,35,11,258.0,2.0,105,43,4,2,4,3,-1,-1,1,7
87,208,69,34,9,261.0,1.0,95,43,2,1,2,2,2,1,-1,6
88,211,64,31,4,264.0,2.0,105,44,-3,-2,9,6,2,1,-1,5
89,213,60,29,0,267.0,1.0,95,44,-7,-4,5,4,0,0,-1,4
90,216,66,32,6,270.0,2.0,105,45,-1,-1,11,7,-1,-1,1,5
91,218,62,30,2,273.0,2.0,95,45,-5,-3,7,5,0,0,-1,4
92,220,71,35,11,276.0,1.0,105,46,4,2,4,3,-1,-1,1,5
93,223,72,36,0,279.0,1.0,95,46,5,3,5,4,1,1,1,6
94,226,67,33,7,282.0,3.0,105,47,0,0,0,1,1,1,-1,5
95,227,55,26,7,285.0,3.0,95,47,-12,-7,0,1,-12,-7,-1,4
