,index,midi_note_num,diatonic_note_num,chromatic_pitch_class,onset,duration,velocity,bar_count,relative_chromatic_pitch,relative_diatonic_pitch,chromatic_scale_degree,diatonic_scale_degree,chromatic_interval,diatonic_interval,parsons_code,parsons_cumsum
0,0,67,33,7,0.0,1.5,105,0,0,0,0,1,0,0,0,0
1,4,74,37,2,4.0,2.0,95,0,7,4,7,5,2,1,1,1
2,6,72,36,0,8.0,1.5,105,1,5,3,5,4,-2,-1,-1,0
3,10,74,37,2,12.0,2.0,95,1,7,4,7,5,5,3,1,1
4,12,72,36,0,16.0,1.5,105,2,5,3,5,4,-2,-1,-1,0
5,16,71,35,11,20.0,1.5,95,2,4,2,4,3,2,1,-1,-1
6,20,69,34,9,24.0,1.5,105,3,2,1,2,2,2,1,-1,-2
7,24,69,34,9,28.0,2.0,95,3,2,1,2,2,2,1,0,-2
8,26,67,33,7,32.0,1.5,105,4,0,0,0,1,-2,-1,-1,-3
9,30,74,37,2,36.0,2.0,95,4,7,4,7,5,2,1,1,-2
10,32,72,36,0,40.0,1.5,105,5,5,3,5,4,-2,-1,-1,-3
11,36,74,37,2,44.0,2.0,95,5,7,4,7,5,5,3,1,-2
12,38,72,36,0,48.0,1.5,105,6,5,3,5,4,-2,-1,-1,-3
13,42,71,35,11,52.0,1.5,95,6,4,2,4,3,2,1,-1,-4
14,46,69,34,9,56.0,1.5,105,7,2,1,2,2,2,1,-1,-5
15,50,67,33,7,60.0,2.0,95,7,0,0,0,1,-7,-4,-1,-6
16,52,67,33,7,64.0,1.5,105,8,0,0,0,1,0,0,0,-6
17,56,74,37,2,68.0,2.0,95,8,7,4,7,5,2,1,1,-5
18,58,72,36,0,72.0,1.5,105,9,5,3,5,4,-2,-1,-1,-6
19,62,74,37,2,76.0,2.0,95,9,7,4,7,5,5,3,1,-5
20,64,72,36,0,80.0,1.5,105,10,5,3,5,4,-2,-1,-1,-6
21,68,71,35,11,84.0,1.5,95,10,4,2,4,3,2,1,-1,-7
22,72,69,34,9,88.0,1.5,105,11,2,1,2,2,2,1,-1,-8
23,76,69,34,9,92.0,2.0,95,11,2,1,2,2,2,1,0,-8
24,78,67,33,7,96.0,1.5,105,12,0,0,0,1,-2,-1,-1,-9
25,82,74,37,2,100.0,2.0,95,12,7,4,7,5,2,1,1,-8
26,84,72,36,0,104.0,1.5,105,13,5,3,5,4,-2,-1,-1,-9
27,88,74,37,2,108.0,2.0,95,13,7,4,7,5,5,3,1,-8
28,90,72,36,0,112.0,1.5,105,14,5,3,5,4,-2,-1,-1,-9
29,94,71,35,11,116.0,1.5,95,14,4,2,4,3,2,1,-1,-10
30,98,69,34,9,120.0,1.5,105,15,2,1,2,2,2,1,-1,-11
31,102,67,33,7,124.0,2.0,95,15,0,0,0,1,-7,-4,-1,-12
32,104,79,40,7,128.0,1.5,105,16,12,7,0,1,12,7,1,-11
33,109,78,39,6,132.0,2.0,95,16,11,6,11,7,-1,-1,-1,-12
34,111,72,36,0,136.0,1.5,105,17,5,3,5,4,-2,-1,-1,-13
35,116,71,35,11,140.0,2.0,95,17,4,2,4,3,-1,-1,-1,-14
36,118,76,38,4,144.0,1.5,105,18,9,5,9,6,9,5,1,-13
37,122,74,37,2,148.0,2.0,95,18,7,4,7,5,-2,-1,-1,-14
38,124,67,33,7,152.0,1.5,105,19,0,0,0,1,-4,-2,-1,-15
39,128,69,34,9,156.0,2.0,95,19,2,1,2,2,2,1,1,-14
40,130,79,40,7,160.0,2.0,105,20,12,7,0,1,17,10,1,-13
41,133,78,39,6,164.0,2.0,95,20,11,6,11,7,-1,-1,-1,-14
42,135,76,38,4,168.0,2.0,105,21,9,5,9,6,-2,-1,-1,-15
43,138,74,37,2,172.0,2.0,95,21,7,4,7,5,-2,-1,-1,-16
44,140,72,36,0,176.0,2.0,105,22,5,3,5,4,-2,-1,-1,-17
45,144,71,35,11,180.0,1.5,95,22,4,2,4,3,-1,-1,-1,-18
46,148,69,34,9,184.0,0.67,105,23,2,1,2,2,-2,-1,-1,-19
47,153,67,33,7,188.0,4.0,95,23,0,0,0,1,1,1,-1,-20
48,154,79,40,7,192.0,1.5,105,24,12,7,0,1,12,7,1,-19
49,159,78,39,6,196.0,2.0,95,24,11,6,11,7,-1,-1,-1,-20
50,161,72,36,0,200.0,1.5,105,25,5,3,5,4,-2,-1,-1,-21
51,166,71,35,11,204.0,2.0,95,25,4,2,4,3,-1,-1,-1,-22
52,168,76,38,4,208.0,1.5,105,26,9,5,9,6,9,5,1,-21
53,172,74,37,2,212.0,2.0,95,26,7,4,7,5,-2,-1,-1,-22
54,174,67,33,7,216.0,1.5,105,27,0,0,0,1,-4,-2,-1,-23
55,178,69,34,9,220.0,2.0,95,27,2,1,2,2,2,1,1,-22
56,180,67,33,7,224.0,1.5,105,28,0,0,0,1,5,3,-1,-23
57,184,74,37,2,228.0,2.0,95,28,7,4,7,5,2,1,1,-22
58,186,72,36,0,232.0,1.5,105,29,5,3,5,4,-2,-1,-1,-23
59,190,74,37,2,236.0,2.0,95,29,7,4,7,5,5,3,1,-22
60,192,72,36,0,240.0,1.5,105,30,5,3,5,4,-2,-1,-1,-23
61,196,71,35,11,244.0,1.5,95,30,4,2,4,3,2,1,-1,-24
62,199,69,34,9,248.0,1.5,105,31,2,1,2,2,2,1,-1,-25
63,203,67,33,7,252.0,2.0,95,31,0,0,0,1,-7,-4,-1,-26
64,207,67,33,7,256.0,1.5,105,32,0,0,0,1,1,1,0,-26
65,211,74,37,2,260.0,2.0,95,32,7,4,7,5,2,1,1,-25
66,213,72,36,0,264.0,1.5,105,33,5,3,5,4,10,6,-1,-26
67,217,74,37,2,268.0,2.0,95,33,7,4,7,5,5,3,1,-25
68,219,72,36,0,272.0,1.5,105,34,5,3,5,4,-2,-1,-1,-26
69,223,71,35,11,276.0,1.5,95,34,4,2,4,3,-3,-2,-1,-27
70,226,69,34,9,280.0,1.5,105,35,2,1,2,2,2,1,-1,-28
71,230,69,34,9,284.0,2.0,95,35,2,1,2,2,2,1,0,-28
72,234,67,33,7,288.0,2.0,105,36,0,0,0,1,1,1,-1,-29
73,238,74,37,2,292.0,1.5,95,36,7,4,7,5,2,1,1,-28
74,242,72,36,0,296.0,2.0,105,37,5,3,5,4,1,1,-1,-29
75,246,74,37,2,300.0,2.0,95,37,7,4,7,5,2,1,1,-28
76,248,72,36,0,304.0,1.5,105,38,5,3,5,4,10,6,-1,-29
77,253,71,35,11,308.0,1.5,95,38,4,2,4,3,-1,-1,-1,-30
78,258,69,34,9,312.0,2.0,105,39,2,1,2,2,-2,-1,-1,-31
79,260,67,33,7,316.0,2.0,95,39,0,0,0,1,-7,-4,-1,-32
80,264,67,33,7,320.0,1.5,105,40,0,0,0,1,1,1,0,-32
81,268,74,37,2,324.0,2.0,95,40,7,4,7,5,2,1,1,-31
82,270,72,36,0,328.0,1.5,105,41,5,3,5,4,10,6,-1,-32
83,274,74,37,2,332.0,2.0,95,41,7,4,7,5,5,3,1,-31
84,276,72,36,0,336.0,1.5,105,42,5,3,5,4,-2,-1,-1,-32
85,280,71,35,11,340.0,1.5,95,42,4,2,4,3,-3,-2,-1,-33
86,283,69,34,9,344.0,1.5,105,43,2,1,2,2,2,1,-1,-34
87,287,69,34,9,348.0,2.0,95,43,2,1,2,2,2,1,0,-34
88,291,67,33,7,352.0,2.0,105,44,0,0,0,1,1,1,-1,-35
89,295,74,37,2,356.0,1.5,95,44,7,4,7,5,2,1,1,-34
90,299,72,36,0,360.0,2.0,105,45,5,3,5,4,1,1,-1,-35
91,303,74,37,2,364.0,2.0,95,45,7,4,7,5,2,1,1,-34
92,305,72,36,0,368.0,1.5,105,46,5,3,5,4,10,6,-1,-35
93,310,71,35,11,372.0,1.5,95,46,4,2,4,3,-1,-1,-1,-36
94,315,69,34,9,376.0,2.0,105,47,2,1,2,2,-2,-1,-1,-37
95,317,67,33,7,380.0,2.0,95,47,0,0,0,1,-7,-4,-1,-38
96,320,74,37,2,384.0,1.5,105,48,7,4,7,5,2,1,1,-37
97,325,79,40,7,388.0,2.0,95,48,12,7,0,1,5,3,1,-36
98,327,74,37,2,392.0,1.5,105,49,7,4,7,5,0,0,-1,-37
99,331,79,40,7,396.0,2.0,95,49,12,7,0,1,5,3,1,-36
100,333,74,37,2,400.0,1.5,105,50,7,4,7,5,-5,-3,-1,-37
101,337,72,36,0,404.0,1.5,95,50,5,3,5,4,-2,-1,-1,-38
102,342,71,35,11,408.0,1.5,105,51,4,2,4,3,-1,-1,-1,-39
103,346,69,34,9,412.0,2.0,95,51,2,1,2,2,-2,-1,-1,-40
104,350,74,37,2,416.0,2.0,105,52,7,4,7,5,2,1,1,-39
105,353,79,40,7,420.0,2.0,95,52,12,7,0,1,5,3,1,-38
106,357,74,37,2,424.0,0.67,105,53,7,4,7,5,0,0,-1,-39
107,363,79,40,7,428.0,4.0,95,53,12,7,0,1,5,3,1,-38
108,364,72,36,0,432.0,2.0,105,54,5,3,5,4,-7,-4,-1,-39
109,368,71,35,11,436.0,2.0,95,54,4,2,4,3,-1,-1,-1,-40
110,372,69,34,9,440.0,1.5,105,55,2,1,2,2,-2,-1,-1,-41
111,376,67,33,7,444.0,2.0,95,55,0,0,0,1,1,1,-1,-42
112,379,74,37,2,448.0,1.5,105,56,7,4,7,5,2,1,1,-41
113,384,79,40,7,452.0,2.0,95,56,12,7,0,1,5,3,1,-40
114,386,74,37,2,456.0,1.5,105,57,7,4,7,5,0,0,-1,-41
115,390,79,40,7,460.0,2.0,95,57,12,7,0,1,5,3,1,-40
116,392,74,37,2,464.0,1.5,105,58,7,4,7,5,-5,-3,-1,-41
117,396,72,36,0,468.0,1.5,95,58,5,3,5,4,-2,-1,-1,-42
118,401,71,35,11,472.0,2.0,105,59,4,2,4,3,-1,-1,-1,-43
119,404,69,34,9,476.0,2.0,95,59,2,1,2,2,-2,-1,-1,-44
120,406,67,33,7,480.0,1.5,105,60,0,0,0,1,5,3,-1,-45
121,410,74,37,2,484.0,2.0,95,60,7,4,7,5,2,1,1,-44
122,413,72,36,0,488.0,1.5,105,61,5,3,5,4,5,3,-1,-45
123,417,74,37,2,492.0,2.0,95,61,7,4,7,5,2,1,1,-44
124,420,72,36,0,496.0,2.0,105,62,5,3,5,4,1,1,-1,-45
125,422,71,35,11,500.0,2.0,95,62,4,2,4,3,2,1,-1,-46
126,425,69,34,9,504.0,1.5,105,63,2,1,2,2,2,1,-1,-47
127,429,67,33,7,508.0,2.0,95,63,0,0,0,1,-7,-4,-1,-48
