,index,midi_note_num,diatonic_note_num,chromatic_pitch_class,onset,duration,velocity,bar_count,relative_chromatic_pitch,relative_diatonic_pitch,chromatic_scale_degree,diatonic_scale_degree,chromatic_interval,diatonic_interval,parsons_code,parsons_cumsum
0,2,69,34,9,2.0,1.0,105,0,0,0,0,1,0,0,0,0
1,6,64,31,4,6.0,3.0,95,0,-5,-3,7,5,-4,-2,-1,-1
2,8,69,34,9,10.0,1.0,105,1,0,0,0,1,1,1,1,0
3,12,76,38,4,14.0,1.0,95,1,7,4,7,5,3,2,1,1
4,16,69,34,9,18.0,1.0,105,2,0,0,0,1,1,1,-1,0
5,20,64,31,4,22.0,1.0,95,2,-5,-3,7,5,-4,-2,-1,-1
6,24,62,30,2,26.0,1.0,105,3,-7,-4,5,4,1,1,-1,-2
7,28,61,29,1,30.0,1.0,95,3,-8,-5,4,3,-1,-1,-1,-3
8,32,69,34,9,34.0,1.0,105,4,0,0,0,1,1,1,1,-2
9,36,64,31,4,38.0,3.0,95,4,-5,-3,7,5,-4,-2,-1,-3
10,38,69,34,9,42.0,1.0,105,5,0,0,0,1,1,1,1,-2
11,42,76,38,4,46.0,1.0,95,5,7,4,7,5,3,2,1,-1
12,46,76,38,4,50.0,1.0,105,6,7,4,7,5,3,2,0,-1
13,50,81,41,9,54.0,1.0,95,6,12,7,0,1,-2,-1,1,0
14,54,74,37,2,58.0,1.0,105,7,5,3,5,4,1,1,-1,-1
15,58,73,36,1,62.0,1.0,95,7,4,2,4,3,-1,-1,-1,-2
16,62,69,34,9,66.0,3.0,105,8,0,0,0,1,1,1,-1,-3
17,64,69,34,9,70.0,1.0,95,8,0,0,0,1,-2,-1,0,-3
18,68,69,34,9,74.0,1.0,105,9,0,0,0,1,1,1,0,-3
19,72,76,38,4,78.0,1.0,95,9,7,4,7,5,3,2,1,-2
20,76,69,34,9,82.0,1.0,105,10,0,0,0,1,1,1,-1,-3
21,80,64,31,4,86.0,1.0,95,10,-5,-3,7,5,-4,-2,-1,-4
22,84,62,30,2,90.0,1.0,105,11,-7,-4,5,4,1,1,-1,-5
23,88,61,29,1,94.0,1.0,95,11,-8,-5,4,3,-1,-1,-1,-6
24,92,69,34,9,98.0,1.0,105,12,0,0,0,1,1,1,1,-5
25,96,64,31,4,102.0,3.0,95,12,-5,-3,7,5,-4,-2,-1,-6
26,98,69,34,9,106.0,1.0,105,13,0,0,0,1,1,1,1,-5
27,102,76,38,4,110.0,1.0,95,13,7,4,7,5,3,2,1,-4
28,106,76,38,4,114.0,1.0,105,14,7,4,7,5,3,2,0,-4
29,110,81,41,9,118.0,1.0,95,14,12,7,0,1,-2,-1,1,-3
30,114,74,37,2,122.0,1.0,105,15,5,3,5,4,1,1,-1,-4
31,118,73,36,1,126.0,1.0,95,15,4,2,4,3,-1,-1,-1,-5
32,122,71,35,11,130.0,1.0,105,16,2,1,2,2,-2,-1,-1,-6
33,126,69,34,9,134.0,1.0,95,16,0,0,0,1,1,1,-1,-7
34,130,66,32,6,138.0,3.0,105,17,-3,-2,9,6,-3,-2,-1,-8
35,132,66,32,6,142.0,1.0,95,17,-3,-2,9,6,-2,-1,0,-8
36,136,69,34,9,146.0,1.0,105,18,0,0,0,1,1,1,1,-7
37,140,61,29,1,150.0,1.0,95,18,-8,-5,4,3,2,1,-1,-8
38,144,62,30,2,154.0,1.0,105,19,-7,-4,5,4,1,1,1,-7
39,148,61,29,1,158.0,1.0,95,19,-8,-5,4,3,-1,-1,-1,-8
40,152,62,30,2,162.0,1.0,105,20,-7,-4,5,4,1,1,1,-7
41,156,64,31,4,166.0,1.0,95,20,-5,-3,7,5,2,1,1,-6
42,160,66,32,6,170.0,3.0,105,21,-3,-2,9,6,-3,-2,1,-5
43,162,66,32,6,174.0,1.0,95,21,-3,-2,9,6,-2,-1,0,-5
44,166,69,34,9,178.0,1.0,105,22,0,0,0,1,1,1,1,-4
45,170,61,29,1,182.0,1.0,95,22,-8,-5,4,3,-3,-2,-1,-5
46,174,62,30,2,186.0,1.0,105,23,-7,-4,5,4,1,1,1,-4
47,178,64,31,4,190.0,1.0,95,23,-5,-3,7,5,2,1,1,-3
48,182,64,31,4,194.0,1.0,105,24,-5,-3,7,5,-2,-1,0,-3
49,186,57,27,9,198.0,1.0,95,24,-12,-7,0,1,-2,-1,-1,-4
50,190,66,32,6,202.0,3.0,105,25,-3,-2,9,6,-3,-2,1,-3
51,192,66,32,6,206.0,1.0,95,25,-3,-2,9,6,-2,-1,0,-3
52,196,69,34,9,210.0,1.0,105,26,0,0,0,1,1,1,1,-2
53,200,61,29,1,214.0,1.0,95,26,-8,-5,4,3,-3,-2,-1,-3
54,204,62,30,2,218.0,1.0,105,27,-7,-4,5,4,1,1,1,-2
55,208,61,29,1,222.0,1.0,95,27,-8,-5,4,3,-1,-1,-1,-3
56,212,62,30,2,226.0,1.0,105,28,-7,-4,5,4,1,1,1,-2
57,216,64,31,4,230.0,1.0,95,28,-5,-3,7,5,2,1,1,-1
58,220,66,32,6,234.0,3.0,105,29,-3,-2,9,6,-3,-2,1,0
59,222,66,32,6,238.0,1.0,95,29,-3,-2,9,6,-2,-1,0,0
60,226,69,34,9,242.0,1.0,105,30,0,0,0,1,1,1,1,1
61,230,61,29,1,246.0,1.0,95,30,-8,-5,4,3,-3,-2,-1,0
62,234,62,30,2,250.0,1.0,105,31,-7,-4,5,4,1,1,1,1
63,238,64,31,4,254.0,1.0,95,31,-5,-3,7,5,2,1,1,2
64,242,64,31,4,258.0,1.0,105,32,-5,-3,7,5,-2,-1,0,2
65,246,57,27,9,262.0,1.0,95,32,-12,-7,0,1,-2,-1,-1,1
