,index,midi_note_num,diatonic_note_num,chromatic_pitch_class,onset,duration,velocity,bar_count,relative_chromatic_pitch,relative_diatonic_pitch,chromatic_scale_degree,diatonic_scale_degree,chromatic_interval,diatonic_interval,parsons_code,parsons_cumsum
0,0,67,33,7,0.0,1.0,105,0,0,0,0,1,0,0,0,0
1,3,79,40,7,3.0,1.0,95,0,12,7,0,1,-2,-1,1,1
2,6,74,37,2,6.0,1.0,95,0,7,4,7,5,-2,-1,-1,0
3,9,72,36,0,9.0,1.0,105,1,5,3,5,4,1,1,-1,-1
4,12,78,39,6,12.0,1.0,95,1,11,6,11,7,-1,-1,1,0
5,15,72,36,0,15.0,1.0,95,1,5,3,5,4,-2,-1,-1,-1
6,18,71,35,11,18.0,1.0,105,2,4,2,4,3,2,1,-1,-2
7,21,83,42,11,21.0,1.0,95,2,16,9,4,3,9,5,1,-1
8,24,74,37,2,24.0,1.0,95,2,7,4,7,5,-5,-3,-1,-2
9,27,69,34,9,27.0,1.0,105,3,2,1,2,2,-2,-1,-1,-3
10,30,81,41,9,30.0,1.0,95,3,14,8,2,2,9,5,1,-2
11,33,76,38,4,33.0,1.0,95,3,9,5,9,6,-2,-1,-1,-3
12,36,71,35,11,36.0,1.0,105,4,4,2,4,3,-1,-1,-1,-4
13,39,74,37,2,39.0,1.0,95,4,7,4,7,5,0,0,1,-3
14,42,83,42,11,42.0,2.0,95,4,16,9,4,3,9,5,1,-2
15,44,79,40,7,45.0,1.0,105,5,12,7,0,1,-2,-1,-1,-3
16,47,71,35,11,48.0,1.0,95,5,4,2,4,3,0,0,-1,-4
17,50,76,38,4,51.0,2.0,95,5,9,5,9,6,2,1,1,-3
18,52,76,38,4,54.0,1.0,105,6,9,5,9,6,2,1,0,-3
19,55,74,37,2,57.0,1.0,95,6,7,4,7,5,-5,-3,-1,-4
20,58,71,35,11,60.0,2.0,95,6,4,2,4,3,2,1,-1,-5
21,60,67,33,7,63.0,1.5,105,7,0,0,0,1,-2,-1,-1,-6
22,63,67,33,7,66.0,3.0,95,7,0,0,0,1,0,0,0,-6
23,64,67,33,7,72.0,1.0,105,8,0,0,0,1,0,0,0,-6
24,67,79,40,7,75.0,1.0,95,8,12,7,0,1,-2,-1,1,-5
25,70,74,37,2,78.0,1.0,95,8,7,4,7,5,-2,-1,-1,-6
26,73,72,36,0,81.0,1.0,105,9,5,3,5,4,1,1,-1,-7
27,76,78,39,6,84.0,1.0,95,9,11,6,11,7,-1,-1,1,-6
28,79,72,36,0,87.0,1.0,95,9,5,3,5,4,-2,-1,-1,-7
29,82,71,35,11,90.0,1.0,105,10,4,2,4,3,2,1,-1,-8
30,85,83,42,11,93.0,1.0,95,10,16,9,4,3,9,5,1,-7
31,88,74,37,2,96.0,1.0,95,10,7,4,7,5,-5,-3,-1,-8
32,91,69,34,9,99.0,1.0,105,11,2,1,2,2,-2,-1,-1,-9
33,94,81,41,9,102.0,1.0,95,11,14,8,2,2,9,5,1,-8
34,97,76,38,4,105.0,1.0,95,11,9,5,9,6,-2,-1,-1,-9
35,100,71,35,11,108.0,1.0,105,12,4,2,4,3,-1,-1,-1,-10
36,103,74,37,2,111.0,1.0,95,12,7,4,7,5,0,0,1,-9
37,106,83,42,11,114.0,2.0,95,12,16,9,4,3,9,5,1,-8
38,108,79,40,7,117.0,1.0,105,13,12,7,0,1,-2,-1,-1,-9
39,111,71,35,11,120.0,1.0,95,13,4,2,4,3,0,0,-1,-10
40,114,76,38,4,123.0,2.0,95,13,9,5,9,6,2,1,1,-9
41,116,76,38,4,126.0,1.0,105,14,9,5,9,6,2,1,0,-9
42,119,74,37,2,129.0,1.0,95,14,7,4,7,5,-5,-3,-1,-10
43,122,71,35,11,132.0,2.0,95,14,4,2,4,3,2,1,-1,-11
44,124,67,33,7,135.0,1.5,105,15,0,0,0,1,-2,-1,-1,-12
45,127,67,33,7,138.0,3.0,95,15,0,0,0,1,0,0,0,-12
46,128,71,35,11,144.0,1.0,105,16,4,2,4,3,4,2,1,-11
47,131,74,37,2,147.0,1.0,95,16,7,4,7,5,0,0,1,-10
48,134,83,42,11,150.0,2.0,95,16,16,9,4,3,9,5,1,-9
49,136,79,40,7,153.0,1.0,105,17,12,7,0,1,-2,-1,-1,-10
50,139,71,35,11,156.0,1.0,95,17,4,2,4,3,0,0,-1,-11
51,142,76,38,4,159.0,2.0,95,17,9,5,9,6,2,1,1,-10
52,144,76,38,4,162.0,1.0,105,18,9,5,9,6,2,1,0,-10
53,147,74,37,2,165.0,1.0,95,18,7,4,7,5,-5,-3,-1,-11
54,150,71,35,11,168.0,2.0,95,18,4,2,4,3,2,1,-1,-12
55,152,67,33,7,171.0,1.5,105,19,0,0,0,1,-2,-1,-1,-13
56,155,76,38,4,174.0,2.0,95,19,9,5,9,6,2,1,1,-12
57,157,76,38,4,177.0,2.0,95,19,9,5,9,6,-3,-2,0,-12
58,159,71,35,11,180.0,1.0,105,20,4,2,4,3,-3,-2,-1,-13
59,162,74,37,2,183.0,1.0,95,20,7,4,7,5,0,0,1,-12
60,165,83,42,11,186.0,2.0,95,20,16,9,4,3,9,5,1,-11
61,167,79,40,7,189.0,1.0,105,21,12,7,0,1,-2,-1,-1,-12
62,170,71,35,11,192.0,1.0,95,21,4,2,4,3,0,0,-1,-13
63,173,76,38,4,195.0,2.0,95,21,9,5,9,6,2,1,1,-12
64,175,76,38,4,198.0,1.0,105,22,9,5,9,6,2,1,0,-12
65,178,74,37,2,201.0,1.0,95,22,7,4,7,5,-5,-3,-1,-13
66,181,71,35,11,204.0,2.0,95,22,4,2,4,3,2,1,-1,-14
67,183,67,33,7,207.0,1.5,105,23,0,0,0,1,-2,-1,-1,-15
68,186,67,33,7,210.0,3.0,95,23,0,0,0,1,0,0,0,-15
