,index,midi_note_num,diatonic_note_num,chromatic_pitch_class,onset,duration,velocity,bar_count,relative_chromatic_pitch,relative_diatonic_pitch,chromatic_scale_degree,diatonic_scale_degree,chromatic_interval,diatonic_interval,parsons_code,parsons_cumsum
0,0,78,39,6,0.0,2.0,105,0,16,9,4,3,0,0,0,0
1,3,78,39,6,4.0,1.5,95,0,16,9,4,3,-1,-1,0,0
2,6,78,39,6,8.0,1.5,105,1,16,9,4,3,4,2,0,0
3,10,78,39,6,12.0,1.5,95,1,16,9,4,3,-1,-1,0,0
4,14,76,38,4,16.0,1.5,105,2,14,8,2,2,-2,-1,-1,-1
5,18,79,40,7,20.0,1.5,95,2,17,10,5,4,1,1,1,0
6,22,71,35,11,24.0,2.0,105,3,9,5,9,6,-5,-3,-1,-1
7,24,75,38,3,28.0,2.0,95,3,13,8,1,2,-1,0,1,0
8,26,73,36,1,32.0,2.0,105,4,11,6,11,7,-1,-1,-1,-1
9,29,73,36,1,36.0,1.5,95,4,11,6,11,7,-1,-1,0,-1
10,32,73,36,1,40.0,1.5,105,5,11,6,11,7,4,2,0,-1
11,36,73,36,1,44.0,1.5,95,5,11,6,11,7,-1,-1,0,-1
12,40,74,37,2,48.0,1.5,105,6,12,7,0,1,1,1,1,0
13,44,78,39,6,52.0,1.5,95,6,16,9,4,3,2,1,1,1
14,48,69,34,9,56.0,2.0,105,7,7,4,7,5,-2,-1,-1,0
15,50,78,39,6,60.0,1.5,95,7,16,9,4,3,0,0,1,1
16,54,74,37,2,64.0,2.0,95,7,12,7,0,1,-2,-1,-1,0
17,55,78,39,6,66.0,1.5,105,8,16,9,4,3,4,2,1,1
18,59,78,39,6,70.0,1.5,95,8,16,9,4,3,-1,-1,0,1
19,63,76,38,4,74.0,1.5,105,9,14,8,2,2,-2,-1,-1,0
20,67,79,40,7,78.0,1.5,95,9,17,10,5,4,1,1,1,1
21,71,71,35,11,82.0,2.0,105,10,9,5,9,6,-5,-3,-1,0
22,73,75,38,3,86.0,2.0,95,10,13,8,1,2,-1,0,1,1
23,75,73,36,1,90.0,2.0,105,11,11,6,11,7,-1,-1,-1,0
24,78,73,36,1,94.0,1.5,95,11,11,6,11,7,-1,-1,0,0
25,81,73,36,1,98.0,1.5,105,12,11,6,11,7,4,2,0,0
26,85,73,36,1,102.0,1.5,95,12,11,6,11,7,-1,-1,0,0
27,89,74,37,2,106.0,1.5,105,13,12,7,0,1,1,1,1,1
28,93,78,39,6,110.0,0.5,95,13,16,9,4,3,2,1,1,2
29,97,74,37,2,114.0,2.0,105,14,12,7,0,1,1,1,-1,1
30,100,57,27,9,118.0,1.5,95,14,-5,-3,7,5,-5,-3,-1,0
31,103,66,32,6,122.0,2.0,95,14,4,2,4,3,0,0,1,1
32,104,64,31,4,124.0,1.5,105,15,2,1,2,2,-2,-1,-1,0
33,108,71,35,11,128.0,2.0,95,15,9,5,9,6,4,2,1,1
34,110,73,36,1,132.0,1.5,105,16,11,6,11,7,2,1,1,2
35,114,69,34,9,136.0,1.5,95,16,7,4,7,5,-2,-1,-1,1
36,118,74,37,2,140.0,1.5,105,17,12,7,0,1,1,1,1,2
37,122,81,41,9,144.0,1.5,95,17,19,11,7,5,3,2,1,3
38,126,66,32,6,148.0,1.5,105,18,4,2,4,3,-1,-1,-1,2
39,130,66,32,6,152.0,2.0,95,18,4,2,4,3,4,2,0,2
40,132,64,31,4,156.0,1.5,105,19,2,1,2,2,-2,-1,-1,1
41,136,71,35,11,160.0,1.5,95,19,9,5,9,6,4,2,1,2
42,140,73,36,1,164.0,1.5,105,20,11,6,11,7,-1,-1,1,3
43,144,69,34,9,168.0,1.5,95,20,7,4,7,5,-2,-1,-1,2
44,148,74,37,2,172.0,2.0,105,21,12,7,0,1,-2,-1,1,3
45,150,68,33,8,176.0,2.0,95,21,6,3,6,4,-1,-1,-1,2
46,152,66,32,6,180.0,1.5,105,22,4,2,4,3,-1,-1,-1,1
47,156,66,32,6,184.0,2.0,95,22,4,2,4,3,4,2,0,1
48,158,64,31,4,188.0,1.5,105,23,2,1,2,2,-2,-1,-1,0
49,162,71,35,11,192.0,2.0,95,23,9,5,9,6,4,2,1,1
50,164,73,36,1,196.0,1.5,105,24,11,6,11,7,2,1,1,2
51,168,69,34,9,200.0,1.5,95,24,7,4,7,5,-2,-1,-1,1
52,172,74,37,2,204.0,1.5,105,25,12,7,0,1,1,1,1,2
53,176,69,34,9,208.0,1.5,95,25,7,4,7,5,-9,-5,-1,1
54,180,78,39,6,212.0,1.5,105,26,16,9,4,3,-1,-1,1,2
55,184,78,39,6,216.0,1.5,95,26,16,9,4,3,4,2,0,2
56,188,79,40,7,220.0,1.5,105,27,17,10,5,4,1,1,1,3
57,192,83,42,11,224.0,2.0,95,27,21,12,9,6,7,4,1,4
58,195,81,41,9,228.0,0.67,105,28,19,11,7,5,-2,-1,-1,3
59,200,81,41,9,232.0,0.67,95,28,19,11,7,5,-2,-1,0,3
60,206,74,37,2,236.0,2.0,105,29,12,7,0,1,-2,-1,-1,2
61,210,78,39,6,240.0,1.5,95,29,16,9,4,3,0,0,1,3
62,214,74,37,2,244.0,1.5,95,29,12,7,0,1,-2,-1,-1,2
63,216,78,39,6,246.0,1.5,105,30,16,9,4,3,9,5,1,3
64,220,78,39,6,250.0,1.5,95,30,16,9,4,3,-1,-1,0,3
65,225,76,38,4,254.0,1.5,105,31,14,8,2,2,-2,-1,-1,2
66,229,79,40,7,258.0,1.5,95,31,17,10,5,4,1,1,1,3
67,234,71,35,11,262.0,2.0,105,32,9,5,9,6,-5,-3,-1,2
68,236,75,38,3,266.0,2.0,95,32,13,8,1,2,-1,0,1,3
69,238,73,36,1,270.0,0.67,105,33,11,6,11,7,-1,-1,-1,2
70,243,73,36,1,274.0,1.5,95,33,11,6,11,7,-1,-1,0,2
71,246,73,36,1,278.0,1.5,105,34,11,6,11,7,4,2,0,2
72,250,73,36,1,282.0,1.5,95,34,11,6,11,7,-1,-1,0,2
73,255,74,37,2,286.0,1.5,105,35,12,7,0,1,1,1,1,3
74,259,78,39,6,290.0,0.5,95,35,16,9,4,3,2,1,1,4
75,263,74,37,2,294.0,2.0,105,36,12,7,0,1,1,1,-1,3
76,266,69,34,9,298.0,1.5,95,36,7,4,7,5,-5,-3,-1,2
77,269,78,39,6,302.0,2.0,95,36,16,9,4,3,0,0,1,3
78,270,76,38,4,304.0,1.5,105,37,14,8,2,2,-2,-1,-1,2
79,274,71,35,11,308.0,2.0,95,37,9,5,9,6,-8,-5,-1,1
80,276,73,36,1,312.0,1.5,105,38,11,6,11,7,2,1,1,2
81,280,69,34,9,316.0,1.5,95,38,7,4,7,5,-2,-1,-1,1
82,284,74,37,2,320.0,1.5,105,39,12,7,0,1,1,1,1,2
83,288,69,34,9,324.0,1.5,95,39,7,4,7,5,-9,-5,-1,1
84,292,78,39,6,328.0,1.5,105,40,16,9,4,3,-1,-1,1,2
85,296,78,39,6,332.0,2.0,95,40,16,9,4,3,4,2,0,2
86,298,76,38,4,336.0,1.5,105,41,14,8,2,2,-2,-1,-1,1
87,302,71,35,11,340.0,1.5,95,41,9,5,9,6,-8,-5,-1,0
88,306,73,36,1,344.0,1.5,105,42,11,6,11,7,-1,-1,1,1
89,310,69,34,9,348.0,1.5,95,42,7,4,7,5,-2,-1,-1,0
90,314,74,37,2,352.0,2.0,105,43,12,7,0,1,-2,-1,1,1
91,316,80,40,8,356.0,2.0,95,43,18,10,6,4,-1,-1,1,2
92,318,78,39,6,360.0,1.5,105,44,16,9,4,3,-1,-1,-1,1
93,322,78,39,6,364.0,2.0,95,44,16,9,4,3,4,2,0,1
94,324,76,38,4,368.0,1.5,105,45,14,8,2,2,-2,-1,-1,0
95,328,71,35,11,372.0,2.0,95,45,9,5,9,6,-8,-5,-1,-1
96,330,73,36,1,376.0,1.5,105,46,11,6,11,7,2,1,1,0
97,334,69,34,9,380.0,1.5,95,46,7,4,7,5,-2,-1,-1,-1
98,338,74,37,2,384.0,1.5,105,47,12,7,0,1,1,1,1,0
99,342,69,34,9,388.0,1.5,95,47,7,4,7,5,-9,-5,-1,-1
100,346,78,39,6,392.0,1.5,105,48,16,9,4,3,-1,-1,1,0
101,350,78,39,6,396.0,1.5,95,48,16,9,4,3,4,2,0,0
102,354,79,40,7,400.0,1.5,105,49,17,10,5,4,1,1,1,1
103,358,83,42,11,404.0,2.0,95,49,21,12,9,6,7,4,1,2
104,361,81,41,9,408.0,0.67,105,50,19,11,7,5,-2,-1,-1,1
105,366,81,41,9,412.0,0.67,95,50,19,11,7,5,-2,-1,0,1
106,372,74,37,2,416.0,2.0,105,51,12,7,0,1,-2,-1,-1,0
107,375,78,39,6,420.0,1.5,95,51,16,9,4,3,1,0,1,1
108,379,74,37,2,424.0,1.5,95,51,12,7,0,1,-2,-1,-1,0
109,381,78,39,6,426.0,2.0,105,52,16,9,4,3,2,1,1,1
110,385,78,39,6,430.0,1.5,95,52,16,9,4,3,-1,-1,0,1
111,388,76,38,4,434.0,2.0,105,53,14,8,2,2,2,1,-1,0
112,392,79,40,7,438.0,1.5,95,53,17,10,5,4,1,1,1,1
113,396,71,35,11,442.0,2.0,105,54,9,5,9,6,-5,-3,-1,0
114,398,75,38,3,446.0,2.0,95,54,13,8,1,2,-1,0,1,1
115,400,73,36,1,450.0,1.5,105,55,11,6,11,7,-1,-1,-1,0
116,404,73,36,1,454.0,1.5,95,55,11,6,11,7,-1,-1,0,0
117,407,73,36,1,458.0,2.0,105,56,11,6,11,7,4,2,0,0
118,411,73,36,1,462.0,1.5,95,56,11,6,11,7,-1,-1,0,0
119,415,74,37,2,466.0,2.0,105,57,12,7,0,1,1,1,1,1
120,419,78,39,6,470.0,2.0,95,57,16,9,4,3,2,1,1,2
121,423,74,37,2,474.0,2.0,105,58,12,7,0,1,1,1,-1,1
122,426,57,27,9,478.0,1.5,95,58,-5,-3,7,5,-5,-3,-1,0
123,429,66,32,6,482.0,2.0,95,58,4,2,4,3,0,0,1,1
124,430,64,31,4,484.0,1.5,105,59,2,1,2,2,-2,-1,-1,0
125,434,59,28,11,488.0,2.0,95,59,-3,-2,9,6,-8,-5,-1,-1
126,436,61,29,1,492.0,1.5,105,60,-1,-1,11,7,2,1,1,0
127,440,57,27,9,496.0,1.5,95,60,-5,-3,7,5,-2,-1,-1,-1
128,444,62,30,2,500.0,1.5,105,61,0,0,0,1,1,1,1,0
129,448,69,34,9,504.0,2.0,95,61,7,4,7,5,3,2,1,1
130,452,66,32,6,508.0,1.5,105,62,4,2,4,3,-1,-1,-1,0
131,456,66,32,6,512.0,2.0,95,62,4,2,4,3,4,2,0,0
132,458,64,31,4,516.0,1.5,105,63,2,1,2,2,-2,-1,-1,-1
133,462,59,28,11,520.0,1.5,95,63,-3,-2,9,6,-8,-5,-1,-2
134,466,61,29,1,524.0,1.5,105,64,-1,-1,11,7,-1,-1,1,-1
135,470,57,27,9,528.0,2.0,95,64,-5,-3,7,5,-2,-1,-1,-2
136,474,62,30,2,532.0,2.0,105,65,0,0,0,1,-2,-1,1,-1
137,476,68,33,8,536.0,2.0,95,65,6,3,6,4,-1,-1,1,0
138,478,66,32,6,540.0,1.5,105,66,4,2,4,3,-1,-1,-1,-1
139,482,66,32,6,544.0,2.0,95,66,4,2,4,3,4,2,0,-1
140,484,64,31,4,548.0,1.5,105,67,2,1,2,2,-2,-1,-1,-2
141,488,59,28,11,552.0,2.0,95,67,-3,-2,9,6,-8,-5,-1,-3
142,490,61,29,1,556.0,1.5,105,68,-1,-1,11,7,2,1,1,-2
143,494,57,27,9,560.0,1.5,95,68,-5,-3,7,5,-2,-1,-1,-3
144,498,62,30,2,564.0,1.5,105,69,0,0,0,1,1,1,1,-2
145,502,69,34,9,568.0,1.5,95,69,7,4,7,5,3,2,1,-1
146,506,78,39,6,572.0,1.5,105,70,16,9,4,3,-1,-1,1,0
147,510,78,39,6,576.0,1.5,95,70,16,9,4,3,4,2,0,0
148,514,79,40,7,580.0,1.5,105,71,17,10,5,4,1,1,1,1
149,518,83,42,11,584.0,2.0,95,71,21,12,9,6,7,4,1,2
150,521,81,41,9,588.0,0.67,105,72,19,11,7,5,-2,-1,-1,1
151,526,81,41,9,592.0,0.67,95,72,19,11,7,5,-2,-1,0,1
152,532,74,37,2,596.0,2.0,105,73,12,7,0,1,-2,-1,-1,0
153,534,62,30,2,600.0,4.0,95,73,0,0,0,1,-7,-4,-1,-1
