,index,midi_note_num,diatonic_note_num,chromatic_pitch_class,onset,duration,velocity,bar_count,relative_chromatic_pitch,relative_diatonic_pitch,chromatic_scale_degree,diatonic_scale_degree,chromatic_interval,diatonic_interval,parsons_code,parsons_cumsum
0,2,69,34,9,4.0,2.0,95,0,7,4,7,5,0,0,0,0
1,4,74,37,2,8.0,2.0,105,1,12,7,0,1,2,1,1,1
2,7,74,37,2,12.0,1.0,95,1,12,7,0,1,0,0,0,1
3,11,74,37,2,16.0,1.0,105,2,12,7,0,1,2,1,0,1
4,14,67,33,7,20.0,1.0,95,2,5,3,5,4,-2,-1,-1,0
5,17,67,33,7,24.0,1.0,105,3,5,3,5,4,-5,-3,0,0
6,22,62,30,2,32.0,2.0,105,4,0,0,0,1,-3,-2,-1,-1
7,25,69,34,9,36.0,2.0,95,4,7,4,7,5,0,0,1,0
8,27,72,36,0,40.0,0.5,105,5,10,6,10,7,0,0,1,1
9,31,74,37,2,44.0,1.0,95,5,12,7,0,1,0,0,1,2
10,35,74,37,2,48.0,1.0,105,6,12,7,0,1,2,1,0,2
11,38,74,37,2,52.0,1.0,95,6,12,7,0,1,5,3,0,2
12,41,74,37,2,56.0,1.0,105,7,12,7,0,1,2,1,0,2
13,46,69,34,9,64.0,2.0,105,8,7,4,7,5,0,0,-1,1
14,49,74,37,2,68.0,1.0,95,8,12,7,0,1,-2,-1,1,2
15,53,72,36,0,72.0,0.5,105,9,10,6,10,7,0,0,-1,1
16,57,74,37,2,76.0,1.0,95,9,12,7,0,1,0,0,1,2
17,61,74,37,2,80.0,1.0,105,10,12,7,0,1,2,1,0,2
18,64,67,33,7,84.0,1.0,95,10,5,3,5,4,-2,-1,-1,1
19,67,69,34,9,88.0,1.0,105,11,7,4,7,5,-3,-2,1,2
20,72,67,33,7,96.0,2.0,105,12,5,3,5,4,-2,-1,-1,1
21,75,69,34,9,100.0,2.0,95,12,7,4,7,5,0,0,1,2
22,77,72,36,0,104.0,0.5,105,13,10,6,10,7,0,0,1,3
23,81,74,37,2,108.0,1.0,95,13,12,7,0,1,0,0,1,4
24,85,74,37,2,112.0,1.0,105,14,12,7,0,1,2,1,0,4
25,88,67,33,7,116.0,1.0,95,14,5,3,5,4,-2,-1,-1,3
26,91,67,33,7,120.0,1.0,105,15,5,3,5,4,2,1,0,3
27,96,62,30,2,128.0,2.0,105,16,0,0,0,1,-3,-2,-1,2
28,99,69,34,9,132.0,2.0,95,16,7,4,7,5,0,0,1,3
29,101,72,36,0,136.0,0.5,105,17,10,6,10,7,0,0,1,4
30,105,74,37,2,140.0,1.0,95,17,12,7,0,1,0,0,1,5
31,109,74,37,2,144.0,1.0,105,18,12,7,0,1,2,1,0,5
32,113,69,34,9,148.0,1.0,95,18,7,4,7,5,-3,-2,-1,4
33,117,67,33,7,152.0,1.0,105,19,5,3,5,4,-1,0,-1,3
34,126,67,33,7,164.0,1.0,95,19,5,3,5,4,2,1,0,3
35,130,74,37,2,168.0,2.0,105,20,12,7,0,1,2,1,1,4
36,133,74,37,2,172.0,1.0,95,20,12,7,0,1,0,0,0,4
37,137,74,37,2,176.0,1.0,105,21,12,7,0,1,2,1,0,4
38,140,74,37,2,180.0,1.0,95,21,12,7,0,1,5,3,0,4
39,143,74,37,2,184.0,1.0,105,22,12,7,0,1,2,1,0,4
40,151,74,37,2,196.0,1.0,95,22,12,7,0,1,-3,-2,0,4
41,155,72,36,0,200.0,0.5,105,23,10,6,10,7,0,0,-1,3
42,159,74,37,2,204.0,1.0,95,23,12,7,0,1,0,0,1,4
43,163,74,37,2,208.0,1.0,105,24,12,7,0,1,2,1,0,4
44,166,67,33,7,212.0,1.0,95,24,5,3,5,4,-2,-1,-1,3
45,169,69,34,9,216.0,1.0,105,25,7,4,7,5,-3,-2,1,4
46,173,67,33,7,224.0,2.0,105,26,5,3,5,4,-2,-1,-1,3
47,176,69,34,9,228.0,2.0,95,26,7,4,7,5,0,0,1,4
48,178,74,37,2,232.0,2.0,105,27,12,7,0,1,2,1,1,5
49,181,74,37,2,236.0,1.0,95,27,12,7,0,1,0,0,0,5
50,185,74,37,2,240.0,1.0,105,28,12,7,0,1,2,1,0,5
51,189,69,34,9,244.0,1.0,95,28,7,4,7,5,2,1,-1,4
52,193,67,33,7,248.0,1.0,105,29,5,3,5,4,-2,-1,-1,3
53,196,62,30,2,252.0,2.0,95,29,0,0,0,1,0,0,-1,2
54,199,62,30,2,256.0,2.0,105,30,0,0,0,1,-3,-2,0,2
55,202,62,30,2,260.0,2.0,95,30,0,0,0,1,0,0,0,2
56,204,65,32,5,264.0,0.5,105,31,3,2,3,3,0,0,1,3
57,208,67,33,7,268.0,1.0,95,31,5,3,5,4,0,0,1,4
58,212,62,30,2,272.0,1.0,105,32,0,0,0,1,-3,-2,-1,3
59,216,67,33,7,276.0,1.0,95,32,5,3,5,4,5,3,1,4
60,220,69,34,9,280.0,1.0,105,33,7,4,7,5,2,1,1,5
61,224,65,32,5,284.0,1.0,95,33,3,2,3,3,-2,-1,-1,4
62,228,69,34,9,288.0,1.0,105,34,7,4,7,5,2,1,1,5
63,232,69,34,9,292.0,1.0,95,34,7,4,7,5,0,0,0,5
64,235,67,33,7,296.0,2.0,105,35,5,3,5,4,-2,-1,-1,4
65,238,67,33,7,300.0,1.0,95,35,5,3,5,4,0,0,0,4
66,242,69,34,9,304.0,1.0,105,36,7,4,7,5,-1,-1,1,5
67,246,67,33,7,308.0,1.0,95,36,5,3,5,4,5,3,-1,4
68,249,56,26,8,312.0,1.0,105,37,-6,-4,6,4,-11,-7,-1,3
69,253,64,31,4,316.0,1.0,95,37,2,1,2,2,-1,-1,1,4
70,257,69,34,9,320.0,1.0,105,38,7,4,7,5,-2,-1,1,5
71,261,80,40,8,324.0,1.0,95,38,18,10,6,4,-1,-1,1,6
72,265,74,37,2,328.0,1.0,105,39,12,7,0,1,-2,-1,-1,5
73,271,74,37,2,336.0,1.0,105,40,12,7,0,1,-2,-1,0,5
74,277,74,37,2,344.0,1.0,105,41,12,7,0,1,2,1,0,5
75,281,69,34,9,348.0,1.0,95,41,7,4,7,5,2,1,-1,4
76,284,67,33,7,352.0,1.0,105,42,5,3,5,4,-1,0,-1,3
77,289,72,36,0,360.0,1.0,105,43,10,6,10,7,3,2,1,4
78,295,74,37,2,368.0,1.0,105,44,12,7,0,1,2,1,1,5
79,299,76,38,4,372.0,1.0,95,44,14,8,2,2,2,1,1,6
80,302,74,37,2,376.0,1.0,105,45,12,7,0,1,-2,-1,-1,5
81,305,69,34,9,380.0,1.0,95,45,7,4,7,5,0,0,-1,4
82,311,79,40,7,388.0,1.0,95,45,17,10,5,4,2,1,1,5
83,314,74,37,2,392.0,2.0,105,46,12,7,0,1,0,0,-1,4
84,317,74,37,2,396.0,1.0,95,46,12,7,0,1,0,0,0,4
85,321,74,37,2,400.0,1.0,105,47,12,7,0,1,2,1,0,4
86,325,69,34,9,404.0,1.0,95,47,7,4,7,5,-3,-2,-1,3
87,333,67,33,7,416.0,2.0,105,48,5,3,5,4,-2,-1,-1,2
88,336,69,34,9,420.0,2.0,95,48,7,4,7,5,0,0,1,3
89,338,72,36,0,424.0,0.5,105,49,10,6,10,7,0,0,1,4
90,342,74,37,2,428.0,1.0,95,49,12,7,0,1,0,0,1,5
91,346,74,37,2,432.0,1.0,105,50,12,7,0,1,2,1,0,5
92,349,67,33,7,436.0,1.0,95,50,5,3,5,4,-2,-1,-1,4
93,352,67,33,7,440.0,1.0,105,51,5,3,5,4,-5,-3,0,4
94,357,67,33,7,448.0,1.0,105,52,5,3,5,4,2,1,0,4
95,360,62,30,2,456.0,2.0,105,53,0,0,0,1,0,0,-1,3
96,363,62,30,2,460.0,1.0,95,53,0,0,0,1,0,0,0,3
97,367,62,30,2,464.0,1.0,105,54,0,0,0,1,0,0,0,3
98,371,64,31,4,468.0,1.0,95,54,2,1,2,2,-1,-1,1,4
99,375,62,30,2,472.0,1.0,105,55,0,0,0,1,-2,-1,-1,3
100,379,65,32,5,476.0,1.0,95,55,3,2,3,3,3,2,1,4
101,383,62,30,2,480.0,1.0,105,56,0,0,0,1,-2,-1,-1,3
102,387,65,32,5,484.0,1.0,95,56,3,2,3,3,3,2,1,4
103,391,67,33,7,492.0,2.0,95,56,5,3,5,4,-1,0,1,5
104,396,65,32,5,500.0,1.0,95,56,3,2,3,3,0,0,-1,4
105,399,64,31,4,504.0,1.0,105,57,2,1,2,2,2,1,-1,3
106,402,61,29,1,508.0,1.0,95,57,-1,-1,11,7,-3,-2,-1,2
107,405,58,28,10,512.0,1.0,105,58,-4,-2,8,6,-3,-1,-1,1
108,408,57,27,9,516.0,3.0,95,58,-5,-3,7,5,-1,-1,-1,0
109,410,62,30,2,520.0,1.0,105,59,0,0,0,1,3,2,1,1
110,412,62,30,2,524.0,3.0,95,59,0,0,0,1,0,0,0,1
111,414,64,31,4,528.0,0.67,105,60,2,1,2,2,-1,-1,1,2
112,419,58,28,10,532.0,1.0,95,60,-4,-2,8,6,-3,-1,-1,1
113,422,55,26,7,536.0,1.0,105,61,-7,-4,5,4,0,0,-1,0
114,426,62,30,2,540.0,1.0,95,61,0,0,0,1,-5,-3,1,1
115,430,70,35,10,544.0,1.0,105,62,8,5,8,6,3,2,1,2
116,434,79,40,7,548.0,2.0,95,62,17,10,5,4,5,3,1,3
117,437,79,40,7,552.0,1.0,105,63,17,10,5,4,-1,0,0,3
118,440,77,39,5,556.0,1.0,95,63,15,9,3,3,3,2,-1,2
119,443,69,34,9,560.0,1.0,105,64,7,4,7,5,-3,-2,-1,1
120,447,69,34,9,564.0,1.0,95,64,7,4,7,5,2,1,0,1
121,450,67,33,7,568.0,1.0,105,65,5,3,5,4,-2,-1,-1,0
122,455,67,33,7,576.0,1.0,105,66,5,3,5,4,2,1,0,0
123,458,62,30,2,580.0,3.0,95,66,0,0,0,1,0,0,-1,-1
124,460,69,34,9,584.0,1.0,105,67,7,4,7,5,3,2,1,0
125,463,76,38,4,588.0,2.0,95,67,14,8,2,2,-1,-1,1,1
126,465,74,37,2,592.0,3.0,105,68,12,7,0,1,0,0,-1,0
127,468,62,30,2,600.0,1.0,105,69,0,0,0,1,3,2,-1,-1
128,471,64,31,4,604.0,0.67,95,69,2,1,2,2,-1,-1,1,0
129,475,58,28,10,608.0,3.0,105,70,-4,-2,8,6,-4,-2,-1,-1
130,479,62,30,2,620.0,1.0,95,70,0,0,0,1,4,2,1,0
131,484,62,30,2,624.0,1.0,105,71,0,0,0,1,-2,-1,0,0
132,488,61,29,1,628.0,1.0,95,71,-1,-1,11,7,-1,-1,-1,-1
133,492,58,28,10,632.0,2.0,105,72,-4,-2,8,6,-3,-1,-1,-2
134,495,69,34,9,640.0,1.0,105,73,7,4,7,5,3,2,1,-1
135,498,76,38,4,644.0,2.0,95,73,14,8,2,2,-1,-1,1,0
136,500,74,37,2,648.0,3.0,105,74,12,7,0,1,0,0,-1,-1
137,506,67,33,7,660.0,1.0,95,74,5,3,5,4,2,1,-1,-2
138,510,65,32,5,664.0,1.0,105,75,3,2,3,3,3,2,-1,-3
139,514,62,30,2,668.0,1.0,95,75,0,0,0,1,1,1,-1,-4
140,518,58,28,10,672.0,1.0,105,76,-4,-2,8,6,3,2,-1,-5
141,522,62,30,2,680.0,1.0,105,77,0,0,0,1,4,2,1,-4
142,527,65,32,5,684.0,1.0,95,77,3,2,3,3,1,1,1,-3
143,530,72,36,0,687.0,2.0,105,78,10,6,10,7,3,2,1,-2
144,532,77,39,5,691.0,1.0,95,78,15,9,3,3,3,2,1,-1
145,537,67,33,7,699.0,1.0,95,78,5,3,5,4,-1,0,-1,-2
146,543,67,33,7,707.0,1.0,95,78,5,3,5,4,2,1,0,-2
147,546,79,40,7,711.0,4.0,105,79,17,10,5,4,14,8,1,-1
148,550,79,40,7,719.0,0.67,105,80,17,10,5,4,-2,-1,0,-1
149,557,77,39,5,727.0,1.0,105,81,15,9,3,3,-4,-2,-1,-2
150,561,76,38,4,731.0,1.0,95,81,14,8,2,2,-1,-1,-1,-3
151,565,74,37,2,735.0,1.0,105,82,12,7,0,1,-2,-1,-1,-4
152,570,67,33,7,743.0,4.0,105,83,5,3,5,4,-5,-3,-1,-5
153,574,67,33,7,751.0,1.0,105,84,5,3,5,4,-2,-1,0,-5
154,580,56,26,8,759.0,2.0,105,85,-6,-4,6,4,-6,-4,-1,-6
155,582,62,30,2,763.0,2.0,95,85,0,0,0,1,3,2,1,-5
156,584,64,31,4,767.0,2.0,105,86,2,1,2,2,-1,-1,1,-4
157,586,72,36,0,771.0,2.0,95,86,10,6,10,7,4,3,1,-3
158,588,74,37,2,775.0,4.0,105,87,12,7,0,1,-1,-1,1,-2
159,592,74,37,2,783.0,1.0,105,88,12,7,0,1,2,1,0,-2
160,596,69,34,9,787.0,1.0,95,88,7,4,7,5,-3,-2,-1,-3
161,600,67,33,7,791.0,1.0,105,89,5,3,5,4,-1,0,-1,-4
162,605,67,33,7,799.0,1.0,105,90,5,3,5,4,2,1,0,-4
163,608,69,34,9,803.0,2.0,95,90,7,4,7,5,7,4,1,-3
164,610,74,37,2,807.0,2.0,105,91,12,7,0,1,2,1,1,-2
165,613,74,37,2,811.0,1.0,95,91,12,7,0,1,0,0,0,-2
166,617,74,37,2,815.0,1.0,105,92,12,7,0,1,2,1,0,-2
167,620,74,37,2,819.0,1.0,95,92,12,7,0,1,5,3,0,-2
168,623,74,37,2,823.0,1.0,105,93,12,7,0,1,2,1,0,-2
169,630,77,39,5,835.0,1.0,95,93,15,9,3,3,-2,-1,1,-1
170,633,72,36,0,839.0,0.5,105,94,10,6,10,7,0,0,-1,-2
171,637,74,37,2,843.0,1.0,95,94,12,7,0,1,0,0,1,-1
172,641,74,37,2,847.0,1.0,105,95,12,7,0,1,2,1,0,-1
173,644,67,33,7,851.0,1.0,95,95,5,3,5,4,-2,-1,-1,-2
174,647,69,34,9,855.0,1.0,105,96,7,4,7,5,-3,-2,1,-1
175,651,67,33,7,863.0,2.0,105,97,5,3,5,4,-2,-1,-1,-2
176,654,69,34,9,867.0,2.0,95,97,7,4,7,5,0,0,1,-1
177,656,74,37,2,871.0,2.0,105,98,12,7,0,1,2,1,1,0
178,659,74,37,2,875.0,1.0,95,98,12,7,0,1,0,0,0,0
179,663,74,37,2,879.0,1.0,105,99,12,7,0,1,2,1,0,0
180,666,67,33,7,883.0,1.0,95,99,5,3,5,4,-2,-1,-1,-1
181,669,68,33,8,887.0,1.0,105,100,6,3,6,4,3,1,1,0
182,673,67,33,7,891.0,1.0,95,100,5,3,5,4,-1,0,-1,-1
183,677,62,30,2,895.0,2.0,105,101,0,0,0,1,-3,-2,-1,-2
184,679,62,30,2,899.0,4.0,95,101,0,0,0,1,2,1,0,-2
