,index,midi_note_num,diatonic_note_num,chromatic_pitch_class,onset,duration,velocity,bar_count,relative_chromatic_pitch,relative_diatonic_pitch,chromatic_scale_degree,diatonic_scale_degree,chromatic_interval,diatonic_interval,parsons_code,parsons_cumsum
0,0,74,37,2,0.0,1.0,105,0,12,7,0,1,0,0,0,0
1,3,76,38,4,3.0,2.0,95,0,14,8,2,2,2,1,1,1
2,5,71,35,11,6.0,1.0,95,0,9,5,9,6,-3,-2,-1,0
3,8,74,37,2,9.0,2.0,95,0,12,7,0,1,3,2,1,1
4,10,69,34,9,12.0,3.0,105,1,7,4,7,5,-2,-1,-1,0
5,11,69,34,9,15.0,1.0,95,1,7,4,7,5,0,0,0,0
6,14,71,35,11,18.0,2.0,95,1,9,5,9,6,2,1,1,1
7,16,67,33,7,21.0,2.0,95,1,5,3,5,4,-2,-1,-1,0
8,18,74,37,2,24.0,1.0,105,2,12,7,0,1,5,3,1,1
9,21,76,38,4,27.0,2.0,95,2,14,8,2,2,2,1,1,2
10,23,71,35,11,30.0,1.0,95,2,9,5,9,6,-3,-2,-1,1
11,26,74,37,2,33.0,2.0,95,2,12,7,0,1,3,2,1,2
12,28,69,34,9,36.0,3.0,105,3,7,4,7,5,-2,-1,-1,1
13,29,71,35,11,39.0,2.0,95,3,9,5,9,6,2,1,1,2
14,31,67,33,7,42.0,6.0,95,3,5,3,5,4,-2,-1,-1,1
15,32,74,37,2,48.0,1.0,105,4,12,7,0,1,7,4,1,2
16,35,76,38,4,51.0,2.0,95,4,14,8,2,2,2,1,1,3
17,37,71,35,11,54.0,1.0,95,4,9,5,9,6,-3,-2,-1,2
18,40,74,37,2,57.0,2.0,95,4,12,7,0,1,3,2,1,3
19,42,69,34,9,60.0,3.0,105,5,7,4,7,5,-2,-1,-1,2
20,43,69,34,9,63.0,1.0,95,5,7,4,7,5,0,0,0,2
21,46,71,35,11,66.0,2.0,95,5,9,5,9,6,2,1,1,3
22,48,67,33,7,69.0,2.0,95,5,5,3,5,4,-2,-1,-1,2
23,50,74,37,2,72.0,1.0,105,6,12,7,0,1,5,3,1,3
24,53,76,38,4,75.0,2.0,95,6,14,8,2,2,2,1,1,4
25,55,71,35,11,78.0,1.0,95,6,9,5,9,6,-3,-2,-1,3
26,58,74,37,2,81.0,2.0,95,6,12,7,0,1,3,2,1,4
27,60,69,34,9,84.0,3.0,105,7,7,4,7,5,-2,-1,-1,3
28,61,71,35,11,87.0,2.0,95,7,9,5,9,6,2,1,1,4
29,63,67,33,7,90.0,6.0,95,7,5,3,5,4,-2,-1,-1,3
30,64,74,37,2,96.0,3.0,105,8,12,7,0,1,7,4,1,4
31,65,74,37,2,99.0,1.0,95,8,12,7,0,1,0,0,0,4
32,68,79,40,7,102.0,3.0,95,8,17,10,5,4,1,1,1,5
33,69,79,40,7,105.0,1.0,95,8,17,10,5,4,0,0,0,5
34,72,81,41,9,108.0,3.0,105,9,19,11,7,5,2,1,1,6
35,73,81,41,9,111.0,1.0,95,9,19,11,7,5,0,0,0,6
36,76,83,42,11,114.0,2.0,95,9,21,12,9,6,2,1,1,7
37,78,79,40,7,117.0,2.0,95,9,17,10,5,4,-2,-1,-1,6
38,80,74,37,2,120.0,3.0,105,10,12,7,0,1,-2,-1,-1,5
39,81,74,37,2,123.0,1.0,95,10,12,7,0,1,0,0,0,5
40,84,79,40,7,126.0,3.0,95,10,17,10,5,4,1,1,1,6
41,85,79,40,7,129.0,1.0,95,10,17,10,5,4,0,0,0,6
42,88,81,41,9,132.0,2.0,105,11,19,11,7,5,2,1,1,7
43,90,78,39,6,135.0,2.0,95,11,16,9,4,3,-1,-1,-1,6
44,92,74,37,2,138.0,1.0,95,11,12,7,0,1,-2,-1,-1,5
45,95,79,40,7,141.0,3.0,95,11,17,10,5,4,1,1,1,6
46,96,74,37,2,144.0,3.0,105,12,12,7,0,1,-5,-3,-1,5
47,97,74,37,2,147.0,1.0,95,12,12,7,0,1,0,0,0,5
48,100,79,40,7,150.0,3.0,95,12,17,10,5,4,1,1,1,6
49,101,79,40,7,153.0,1.0,95,12,17,10,5,4,0,0,0,6
50,104,81,41,9,156.0,3.0,105,13,19,11,7,5,2,1,1,7
51,105,81,41,9,159.0,1.0,95,13,19,11,7,5,0,0,0,7
52,108,83,42,11,162.0,2.0,95,13,21,12,9,6,2,1,1,8
53,110,79,40,7,165.0,2.0,95,13,17,10,5,4,-2,-1,-1,7
54,112,74,37,2,168.0,3.0,105,14,12,7,0,1,-2,-1,-1,6
55,113,74,37,2,171.0,1.0,95,14,12,7,0,1,0,0,0,6
56,116,79,40,7,174.0,3.0,95,14,17,10,5,4,1,1,1,7
57,117,79,40,7,177.0,1.0,95,14,17,10,5,4,0,0,0,7
58,120,81,41,9,180.0,2.0,105,15,19,11,7,5,2,1,1,8
59,122,78,39,6,183.0,2.0,95,15,16,9,4,3,-1,-1,-1,7
60,124,74,37,2,186.0,1.0,95,15,12,7,0,1,-2,-1,-1,6
61,127,79,40,7,189.0,3.0,95,15,17,10,5,4,1,1,1,7
62,128,79,40,7,192.0,3.0,105,16,17,10,5,4,0,0,0,7
63,129,74,37,2,195.0,3.0,95,16,12,7,0,1,-5,-3,-1,6
64,130,71,35,11,198.0,3.0,95,16,9,5,9,6,-3,-2,-1,5
65,131,67,33,7,201.0,3.0,95,16,5,3,5,4,-4,-2,-1,4
66,132,66,32,6,204.0,1.0,105,17,4,2,4,3,-1,-1,-1,3
67,135,62,30,2,207.0,1.0,95,17,0,0,0,1,-7,-4,-1,2
68,138,67,33,7,210.0,2.0,95,17,5,3,5,4,1,1,1,3
69,140,71,35,11,213.0,2.0,95,17,9,5,9,6,2,1,1,4
70,142,79,40,7,216.0,3.0,105,18,17,10,5,4,5,3,1,5
71,143,74,37,2,219.0,3.0,95,18,12,7,0,1,-5,-3,-1,4
72,144,71,35,11,222.0,3.0,95,18,9,5,9,6,-3,-2,-1,3
73,145,67,33,7,225.0,3.0,95,18,5,3,5,4,-4,-2,-1,2
74,146,66,32,6,228.0,1.0,105,19,4,2,4,3,-1,-1,-1,1
75,149,62,30,2,231.0,1.0,95,19,0,0,0,1,-7,-4,-1,0
76,152,67,33,7,234.0,6.0,95,19,5,3,5,4,1,1,1,1
77,153,79,40,7,240.0,3.0,105,20,17,10,5,4,12,7,1,2
78,154,74,37,2,243.0,3.0,95,20,12,7,0,1,-5,-3,-1,1
79,155,71,35,11,246.0,3.0,95,20,9,5,9,6,-3,-2,-1,0
80,156,67,33,7,249.0,3.0,95,20,5,3,5,4,-4,-2,-1,-1
81,157,66,32,6,252.0,1.0,105,21,4,2,4,3,-1,-1,-1,-2
82,160,62,30,2,255.0,1.0,95,21,0,0,0,1,-7,-4,-1,-3
83,163,67,33,7,258.0,2.0,95,21,5,3,5,4,1,1,1,-2
84,165,71,35,11,261.0,2.0,95,21,9,5,9,6,2,1,1,-1
85,167,79,40,7,264.0,3.0,105,22,17,10,5,4,5,3,1,0
86,168,74,37,2,267.0,3.0,95,22,12,7,0,1,-5,-3,-1,-1
87,169,71,35,11,270.0,3.0,95,22,9,5,9,6,-3,-2,-1,-2
88,170,67,33,7,273.0,3.0,95,22,5,3,5,4,-4,-2,-1,-3
89,171,66,32,6,276.0,1.0,105,23,4,2,4,3,-1,-1,-1,-4
90,174,62,30,2,279.0,1.0,95,23,0,0,0,1,-7,-4,-1,-5
91,177,67,33,7,282.0,6.0,95,23,5,3,5,4,1,1,1,-4
