,index,midi_note_num,diatonic_note_num,chromatic_pitch_class,onset,duration,velocity,bar_count,relative_chromatic_pitch,relative_diatonic_pitch,chromatic_scale_degree,diatonic_scale_degree,chromatic_interval,diatonic_interval,parsons_code,parsons_cumsum
0,0,74,37,2,0.0,1.0,105,0,12,7,0,1,0,0,0,0
1,3,69,34,9,3.0,1.0,95,0,7,4,7,5,-5,-3,-1,-1
2,6,64,31,4,6.0,2.0,105,1,2,1,2,2,2,1,-1,-2
3,8,67,33,7,9.0,2.0,95,1,5,3,5,4,1,1,1,-1
4,10,71,35,11,12.0,1.0,105,2,9,5,9,6,2,1,1,0
5,13,71,35,11,15.0,1.0,95,2,9,5,9,6,0,0,0,0
6,17,69,34,9,18.0,1.0,105,3,7,4,7,5,-5,-3,-1,-1
7,20,64,31,4,21.0,1.0,95,3,2,1,2,2,-2,-1,-1,-2
8,23,74,37,2,24.0,2.0,105,4,12,7,0,1,5,3,1,-1
9,25,69,34,9,27.0,1.0,95,4,7,4,7,5,-5,-3,-1,-2
10,28,64,31,4,30.0,2.0,105,5,2,1,2,2,2,1,-1,-3
11,30,67,33,7,33.0,2.0,95,5,5,3,5,4,1,1,1,-2
12,32,71,35,11,36.0,1.0,105,6,9,5,9,6,2,1,1,-1
13,36,71,35,11,39.0,1.0,95,6,9,5,9,6,0,0,0,-1
14,39,69,34,9,42.0,1.0,105,7,7,4,7,5,-5,-3,-1,-2
15,42,62,30,2,45.0,2.0,95,7,0,0,0,1,0,0,-1,-3
16,44,73,36,1,48.0,1.0,95,7,11,6,11,7,-1,-1,1,-2
17,47,66,32,6,51.0,1.0,95,7,4,2,4,3,-3,-2,-1,-3
18,49,64,31,4,53.0,2.0,105,8,2,1,2,2,2,1,-1,-4
19,51,67,33,7,56.0,2.0,95,8,5,3,5,4,1,1,1,-3
20,53,71,35,11,59.0,1.0,105,9,9,5,9,6,2,1,1,-2
21,56,71,35,11,62.0,1.0,95,9,9,5,9,6,0,0,0,-2
22,60,69,34,9,65.0,1.0,105,10,7,4,7,5,-5,-3,-1,-3
23,63,64,31,4,68.0,1.0,95,10,2,1,2,2,-2,-1,-1,-4
24,66,74,37,2,71.0,2.0,105,11,12,7,0,1,5,3,1,-3
25,68,69,34,9,74.0,1.0,95,11,7,4,7,5,-5,-3,-1,-4
26,71,64,31,4,77.0,2.0,105,12,2,1,2,2,2,1,-1,-5
27,73,67,33,7,80.0,2.0,95,12,5,3,5,4,1,1,1,-4
28,75,71,35,11,83.0,1.0,105,13,9,5,9,6,2,1,1,-3
29,79,71,35,11,86.0,1.0,95,13,9,5,9,6,0,0,0,-3
30,82,69,34,9,89.0,1.0,105,14,7,4,7,5,-5,-3,-1,-4
31,85,62,30,2,92.0,2.0,95,14,0,0,0,1,0,0,-1,-5
32,89,76,38,4,98.0,1.0,95,14,14,8,2,2,3,2,1,-4
33,91,74,37,2,100.0,1.0,105,15,12,7,0,1,5,3,-1,-5
34,94,74,37,2,103.0,1.0,95,15,12,7,0,1,-2,-1,0,-5
35,97,69,34,9,106.0,1.0,105,16,7,4,7,5,-2,-1,-1,-6
36,100,71,35,11,109.0,1.0,95,16,9,5,9,6,2,1,1,-5
37,103,69,34,9,112.0,1.0,105,17,7,4,7,5,-5,-3,-1,-6
38,106,64,31,4,115.0,1.0,95,17,2,1,2,2,-2,-1,-1,-7
39,109,74,37,2,118.0,1.0,105,18,12,7,0,1,5,3,1,-6
40,112,73,36,1,121.0,1.0,95,18,11,6,11,7,-1,-1,-1,-7
41,115,74,37,2,124.0,1.0,105,19,12,7,0,1,5,3,1,-6
42,119,74,37,2,127.0,1.0,95,19,12,7,0,1,-2,-1,0,-6
43,122,69,34,9,130.0,1.0,105,20,7,4,7,5,-2,-1,-1,-7
44,126,71,35,11,133.0,1.0,95,20,9,5,9,6,2,1,1,-6
45,129,69,34,9,136.0,1.0,105,21,7,4,7,5,-5,-3,-1,-7
46,132,62,30,2,139.0,2.0,95,21,0,0,0,1,0,0,-1,-8
47,136,76,38,4,145.0,1.0,95,21,14,8,2,2,3,2,1,-7
48,138,74,37,2,147.0,1.0,105,22,12,7,0,1,5,3,-1,-8
49,141,74,37,2,150.0,1.0,95,22,12,7,0,1,-2,-1,0,-8
50,144,69,34,9,153.0,1.0,105,23,7,4,7,5,-2,-1,-1,-9
51,147,71,35,11,156.0,1.0,95,23,9,5,9,6,2,1,1,-8
52,150,69,34,9,159.0,1.0,105,24,7,4,7,5,-5,-3,-1,-9
53,153,64,31,4,162.0,1.0,95,24,2,1,2,2,-2,-1,-1,-10
54,156,74,37,2,165.0,1.0,105,25,12,7,0,1,5,3,1,-9
55,159,73,36,1,168.0,1.0,95,25,11,6,11,7,-1,-1,-1,-10
56,162,74,37,2,171.0,1.0,105,26,12,7,0,1,5,3,1,-9
57,166,74,37,2,174.0,1.0,95,26,12,7,0,1,-2,-1,0,-9
58,169,69,34,9,177.0,1.0,105,27,7,4,7,5,-2,-1,-1,-10
59,173,71,35,11,180.0,1.0,95,27,9,5,9,6,2,1,1,-9
60,176,69,34,9,183.0,1.0,105,28,7,4,7,5,-5,-3,-1,-10
61,179,62,30,2,186.0,2.0,95,28,0,0,0,1,0,0,-1,-11
62,181,77,39,5,189.0,1.0,95,28,15,9,3,3,-1,0,1,-10
63,184,78,39,6,192.0,1.0,95,28,16,9,4,3,-3,-2,1,-9
64,186,74,37,2,194.0,1.0,105,29,12,7,0,1,0,0,-1,-10
65,189,78,39,6,197.0,1.0,95,29,16,9,4,3,4,2,1,-9
66,192,79,40,7,200.0,1.0,105,30,17,10,5,4,5,3,1,-8
67,195,78,39,6,203.0,0.5,95,30,16,9,4,3,-1,-1,-1,-9
68,199,79,40,7,206.0,1.0,105,31,17,10,5,4,1,1,1,-8
69,202,76,38,4,209.0,2.0,95,31,14,8,2,2,-3,-2,-1,-9
70,204,78,39,6,212.0,1.0,105,32,16,9,4,3,-1,-1,1,-8
71,207,81,41,9,215.0,1.0,95,32,19,11,7,5,3,2,1,-7
72,210,74,37,2,218.0,2.0,105,33,12,7,0,1,0,0,-1,-8
73,212,78,39,6,221.0,1.0,95,33,16,9,4,3,4,2,1,-7
74,215,79,40,7,224.0,1.0,105,34,17,10,5,4,5,3,1,-6
75,218,76,38,4,227.0,1.0,95,34,14,8,2,2,-3,-2,-1,-7
76,221,78,39,6,230.0,1.0,105,35,16,9,4,3,-1,-1,1,-6
77,224,74,37,2,233.0,2.0,95,35,12,7,0,1,1,1,-1,-7
78,226,77,39,5,236.0,1.0,95,35,15,9,3,3,-1,0,1,-6
79,229,78,39,6,239.0,1.0,95,35,16,9,4,3,-3,-2,1,-5
80,231,74,37,2,241.0,1.0,105,36,12,7,0,1,0,0,-1,-6
81,234,78,39,6,244.0,1.0,95,36,16,9,4,3,4,2,1,-5
82,237,79,40,7,247.0,1.0,105,37,17,10,5,4,5,3,1,-4
83,240,78,39,6,250.0,0.5,95,37,16,9,4,3,-1,-1,-1,-5
84,244,79,40,7,253.0,1.0,105,38,17,10,5,4,1,1,1,-4
85,247,76,38,4,256.0,2.0,95,38,14,8,2,2,-3,-2,-1,-5
86,249,78,39,6,259.0,1.0,105,39,16,9,4,3,-1,-1,1,-4
87,252,81,41,9,262.0,1.0,95,39,19,11,7,5,3,2,1,-3
88,255,74,37,2,265.0,2.0,105,40,12,7,0,1,0,0,-1,-4
89,257,78,39,6,268.0,1.0,95,40,16,9,4,3,4,2,1,-3
90,260,79,40,7,271.0,1.0,105,41,17,10,5,4,5,3,1,-2
91,263,76,38,4,274.0,1.0,95,41,14,8,2,2,-3,-2,-1,-3
92,266,78,39,6,277.0,1.0,105,42,16,9,4,3,-1,-1,1,-2
93,269,74,37,2,280.0,2.0,95,42,12,7,0,1,1,1,-1,-3
94,271,74,37,2,283.0,0.5,95,42,12,7,0,1,-4,-2,0,-3
95,275,73,36,1,286.0,1.0,95,42,11,6,11,7,-3,-2,-1,-4
96,277,74,37,2,288.0,1.0,105,43,12,7,0,1,-2,-1,1,-3
97,280,69,34,9,291.0,2.0,95,43,7,4,7,5,-2,-1,-1,-4
98,282,69,34,9,294.0,1.0,105,44,7,4,7,5,-2,-1,0,-4
99,285,69,34,9,297.0,1.0,95,44,7,4,7,5,-5,-3,0,-4
100,289,69,34,9,300.0,1.0,105,45,7,4,7,5,-5,-3,0,-4
101,292,64,31,4,303.0,1.0,95,45,2,1,2,2,-2,-1,-1,-5
102,296,78,39,6,306.0,2.0,105,46,16,9,4,3,9,5,1,-4
103,298,76,38,4,309.0,2.0,95,46,14,8,2,2,-2,-1,-1,-5
104,300,74,37,2,312.0,1.0,105,47,12,7,0,1,1,1,-1,-6
105,303,69,34,9,315.0,2.0,95,47,7,4,7,5,-2,-1,-1,-7
106,305,71,35,11,318.0,1.0,105,48,9,5,9,6,2,1,1,-6
107,308,71,35,11,321.0,1.0,95,48,9,5,9,6,0,0,0,-6
108,312,69,34,9,324.0,1.0,105,49,7,4,7,5,-5,-3,-1,-7
109,315,62,30,2,327.0,2.0,95,49,0,0,0,1,0,0,-1,-8
110,317,74,37,2,330.0,0.5,95,49,12,7,0,1,-4,-2,1,-7
111,321,73,36,1,333.0,1.0,95,49,11,6,11,7,-3,-2,-1,-8
112,323,74,37,2,335.0,1.0,105,50,12,7,0,1,-2,-1,1,-7
113,326,69,34,9,338.0,2.0,95,50,7,4,7,5,-2,-1,-1,-8
114,328,69,34,9,341.0,1.0,105,51,7,4,7,5,-2,-1,0,-8
115,331,69,34,9,344.0,1.0,95,51,7,4,7,5,-5,-3,0,-8
116,335,69,34,9,347.0,1.0,105,52,7,4,7,5,-5,-3,0,-8
117,338,64,31,4,350.0,1.0,95,52,2,1,2,2,-2,-1,-1,-9
118,342,78,39,6,353.0,2.0,105,53,16,9,4,3,9,5,1,-8
119,344,76,38,4,356.0,2.0,95,53,14,8,2,2,-2,-1,-1,-9
120,346,74,37,2,359.0,1.0,105,54,12,7,0,1,1,1,-1,-10
121,349,69,34,9,362.0,2.0,95,54,7,4,7,5,-2,-1,-1,-11
122,351,71,35,11,365.0,1.0,105,55,9,5,9,6,2,1,1,-10
123,354,71,35,11,368.0,1.0,95,55,9,5,9,6,0,0,0,-10
124,358,69,34,9,371.0,1.0,105,56,7,4,7,5,-5,-3,-1,-11
125,361,62,30,2,374.0,2.0,95,56,0,0,0,1,0,0,-1,-12
126,363,69,34,9,377.0,1.0,95,56,7,4,7,5,3,2,1,-11
127,366,71,35,11,380.0,1.0,95,56,9,5,9,6,4,2,1,-10
128,368,66,32,6,382.0,1.0,105,57,4,2,4,3,-1,-1,-1,-11
129,371,66,32,6,385.0,1.0,95,57,4,2,4,3,0,0,0,-11
130,374,66,32,6,388.0,2.0,105,58,4,2,4,3,4,2,0,-11
131,376,67,33,7,391.0,1.0,95,58,5,3,5,4,1,1,1,-10
132,379,69,34,9,394.0,1.0,105,59,7,4,7,5,2,1,1,-9
133,382,62,30,2,397.0,2.0,95,59,0,0,0,1,0,0,-1,-10
134,384,66,32,6,400.0,2.0,105,60,4,2,4,3,-1,-1,1,-9
135,386,67,33,7,403.0,1.0,95,60,5,3,5,4,1,1,1,-8
136,389,66,32,6,406.0,0.5,105,61,4,2,4,3,-1,-1,-1,-9
137,393,66,32,6,409.0,1.0,95,61,4,2,4,3,0,0,0,-9
138,396,71,35,11,412.0,1.0,105,62,9,5,9,6,9,5,1,-8
139,403,69,34,9,417.5,1.0,105,63,7,4,7,5,-5,-3,-1,-9
140,406,62,30,2,420.5,2.0,95,63,0,0,0,1,0,0,-1,-10
141,408,69,34,9,423.5,1.0,95,63,7,4,7,5,3,2,1,-9
142,411,71,35,11,426.5,1.0,95,63,9,5,9,6,4,2,1,-8
143,413,66,32,6,428.5,1.0,105,64,4,2,4,3,-1,-1,-1,-9
144,416,66,32,6,431.5,1.0,95,64,4,2,4,3,0,0,0,-9
145,419,66,32,6,434.5,2.0,105,65,4,2,4,3,4,2,0,-9
146,421,67,33,7,437.5,1.0,95,65,5,3,5,4,1,1,1,-8
147,424,69,34,9,440.5,1.0,105,66,7,4,7,5,2,1,1,-7
148,427,62,30,2,443.5,2.0,95,66,0,0,0,1,0,0,-1,-8
149,429,66,32,6,446.5,2.0,105,67,4,2,4,3,-1,-1,1,-7
150,431,67,33,7,449.5,1.0,95,67,5,3,5,4,1,1,1,-6
151,434,66,32,6,452.5,0.5,105,68,4,2,4,3,-1,-1,-1,-7
152,438,66,32,6,455.5,1.0,95,68,4,2,4,3,0,0,0,-7
153,441,71,35,11,458.5,1.0,105,69,9,5,9,6,9,5,1,-6
154,448,69,34,9,464.0,1.0,105,70,7,4,7,5,-5,-3,-1,-7
155,451,62,30,2,467.0,2.0,95,70,0,0,0,1,0,0,-1,-8
