,index,midi_note_num,diatonic_note_num,chromatic_pitch_class,onset,duration,velocity,bar_count,relative_chromatic_pitch,relative_diatonic_pitch,chromatic_scale_degree,diatonic_scale_degree,chromatic_interval,diatonic_interval,parsons_code,parsons_cumsum
0,0,62,30,2,0.0,2.0,105,0,0,0,0,1,0,0,0,0
1,2,66,32,6,3.0,1.0,95,0,4,2,4,3,0,0,1,1
2,5,69,34,9,6.0,1.0,105,1,7,4,7,5,3,2,1,2
3,8,74,37,2,9.0,1.0,95,1,12,7,0,1,1,1,1,3
4,11,83,42,11,12.0,1.0,105,2,21,12,9,6,2,1,1,4
5,14,81,41,9,15.0,1.0,95,2,19,11,7,5,3,2,-1,3
6,17,76,38,4,18.0,0.67,105,3,14,8,2,2,2,1,-1,2
7,21,78,39,6,21.0,1.0,95,3,16,9,4,3,2,1,1,3
8,24,62,30,2,24.0,2.0,105,4,0,0,0,1,-7,-4,-1,2
9,26,66,32,6,27.0,1.0,95,4,4,2,4,3,0,0,1,3
10,29,69,34,9,30.0,1.0,105,5,7,4,7,5,3,2,1,4
11,32,74,37,2,33.0,1.0,95,5,12,7,0,1,0,0,1,5
12,35,83,42,11,36.0,1.0,105,6,21,12,9,6,2,1,1,6
13,38,81,41,9,39.0,1.0,95,6,19,11,7,5,3,2,-1,5
14,41,76,38,4,42.0,1.0,105,7,14,8,2,2,0,0,-1,4
15,44,69,34,9,45.0,3.0,95,7,7,4,7,5,-2,-1,-1,3
16,45,62,30,2,48.0,2.0,105,8,0,0,0,1,-7,-4,-1,2
17,47,66,32,6,51.0,1.0,95,8,4,2,4,3,0,0,1,3
18,50,69,34,9,54.0,1.0,105,9,7,4,7,5,3,2,1,4
19,53,74,37,2,57.0,1.0,95,9,12,7,0,1,1,1,1,5
20,56,83,42,11,60.0,1.0,105,10,21,12,9,6,2,1,1,6
21,59,81,41,9,63.0,1.0,95,10,19,11,7,5,3,2,-1,5
22,62,76,38,4,66.0,0.67,105,11,14,8,2,2,2,1,-1,4
23,66,78,39,6,69.0,1.0,95,11,16,9,4,3,2,1,1,5
24,69,62,30,2,72.0,2.0,105,12,0,0,0,1,-7,-4,-1,4
25,71,66,32,6,75.0,1.0,95,12,4,2,4,3,0,0,1,5
26,74,69,34,9,78.0,1.0,105,13,7,4,7,5,3,2,1,6
27,77,74,37,2,81.0,1.0,95,13,12,7,0,1,0,0,1,7
28,80,83,42,11,84.0,1.0,105,14,21,12,9,6,2,1,1,8
29,83,81,41,9,87.0,1.0,95,14,19,11,7,5,3,2,-1,7
30,86,76,38,4,90.0,1.0,105,15,14,8,2,2,0,0,-1,6
31,89,69,34,9,93.0,3.0,95,15,7,4,7,5,-2,-1,-1,5
32,90,81,41,9,96.0,1.0,105,16,19,11,7,5,12,7,1,6
33,93,78,39,6,99.0,1.0,95,16,16,9,4,3,-3,-2,-1,5
34,96,79,40,7,102.0,1.0,105,17,17,10,5,4,-2,-1,1,6
35,99,83,42,11,105.0,1.0,95,17,21,12,9,6,4,2,1,7
36,102,81,41,9,108.0,1.0,105,18,19,11,7,5,5,3,-1,6
37,105,73,36,1,111.0,1.0,95,18,11,6,11,7,-1,-1,-1,5
38,108,74,37,2,114.0,1.0,105,19,12,7,0,1,-2,-1,1,6
39,111,69,34,9,117.0,3.0,95,19,7,4,7,5,-2,-1,-1,5
40,112,81,41,9,120.0,1.0,105,20,19,11,7,5,12,7,1,6
41,115,74,37,2,123.0,1.0,95,20,12,7,0,1,0,0,-1,5
42,118,83,42,11,126.0,1.0,105,21,21,12,9,6,2,1,1,6
43,121,79,40,7,129.0,2.0,95,21,17,10,5,4,3,2,-1,5
44,123,81,41,9,132.0,1.0,105,22,19,11,7,5,-2,-1,1,6
45,126,73,36,1,135.0,1.0,95,22,11,6,11,7,-1,-1,-1,5
46,129,78,39,6,138.0,1.0,105,23,16,9,4,3,2,1,1,6
47,132,74,37,2,141.0,3.0,95,23,12,7,0,1,1,1,-1,5
48,133,81,41,9,144.0,1.0,105,24,19,11,7,5,7,4,1,6
49,136,78,39,6,147.0,1.0,95,24,16,9,4,3,-3,-2,-1,5
50,139,79,40,7,150.0,1.0,105,25,17,10,5,4,-2,-1,1,6
51,142,83,42,11,153.0,1.0,95,25,21,12,9,6,4,2,1,7
52,145,81,41,9,156.0,1.0,105,26,19,11,7,5,5,3,-1,6
53,148,73,36,1,159.0,1.0,95,26,11,6,11,7,-1,-1,-1,5
54,151,74,37,2,162.0,1.0,105,27,12,7,0,1,-2,-1,1,6
55,154,69,34,9,165.0,3.0,95,27,7,4,7,5,-2,-1,-1,5
56,155,81,41,9,168.0,1.0,105,28,19,11,7,5,12,7,1,6
57,158,74,37,2,171.0,1.0,95,28,12,7,0,1,0,0,-1,5
58,161,83,42,11,174.0,1.0,105,29,21,12,9,6,2,1,1,6
59,164,79,40,7,177.0,2.0,95,29,17,10,5,4,3,2,-1,5
60,166,81,41,9,180.0,1.0,105,30,19,11,7,5,-2,-1,1,6
61,169,73,36,1,183.0,1.0,95,30,11,6,11,7,-1,-1,-1,5
62,172,78,39,6,186.0,1.0,105,31,16,9,4,3,2,1,1,6
63,175,74,37,2,189.0,3.0,95,31,12,7,0,1,1,1,-1,5
64,176,66,32,6,192.0,2.0,105,32,4,2,4,3,-8,-5,-1,4
65,178,78,39,6,195.0,1.0,95,32,16,9,4,3,9,5,1,5
66,181,67,33,7,198.0,2.0,105,33,5,3,5,4,1,1,-1,4
67,183,79,40,7,201.0,1.0,95,33,17,10,5,4,8,5,1,5
68,186,73,36,1,204.0,2.0,105,34,11,6,11,7,2,1,-1,4
69,188,81,41,9,207.0,1.0,95,34,19,11,7,5,5,3,1,5
70,191,83,42,11,210.0,1.0,105,35,21,12,9,6,2,1,1,6
71,194,81,41,9,213.0,2.0,95,35,19,11,7,5,1,1,-1,5
72,196,81,41,9,216.0,1.0,105,36,19,11,7,5,1,1,0,5
73,199,74,37,2,219.0,1.0,95,36,12,7,0,1,0,0,-1,4
74,202,67,33,7,222.0,1.0,105,37,5,3,5,4,1,1,-1,3
75,205,79,40,7,225.0,1.0,95,37,17,10,5,4,5,3,1,4
76,208,73,36,1,228.0,2.0,105,38,11,6,11,7,2,1,-1,3
77,210,81,41,9,231.0,1.0,95,38,19,11,7,5,5,3,1,4
78,213,76,38,4,234.0,1.0,105,39,14,8,2,2,0,0,-1,3
79,216,74,37,2,237.0,3.0,95,39,12,7,0,1,1,1,-1,2
80,217,66,32,6,240.0,2.0,105,40,4,2,4,3,-8,-5,-1,1
81,219,78,39,6,243.0,1.0,95,40,16,9,4,3,9,5,1,2
82,222,67,33,7,246.0,2.0,105,41,5,3,5,4,1,1,-1,1
83,224,79,40,7,249.0,1.0,95,41,17,10,5,4,8,5,1,2
84,227,73,36,1,252.0,2.0,105,42,11,6,11,7,2,1,-1,1
85,229,81,41,9,255.0,1.0,95,42,19,11,7,5,5,3,1,2
86,232,83,42,11,258.0,1.0,105,43,21,12,9,6,2,1,1,3
87,235,81,41,9,261.0,2.0,95,43,19,11,7,5,1,1,-1,2
88,237,81,41,9,264.0,1.0,105,44,19,11,7,5,1,1,0,2
89,240,74,37,2,267.0,1.0,95,44,12,7,0,1,0,0,-1,1
90,243,67,33,7,270.0,1.0,105,45,5,3,5,4,1,1,-1,0
91,246,79,40,7,273.0,1.0,95,45,17,10,5,4,5,3,1,1
92,249,73,36,1,276.0,2.0,105,46,11,6,11,7,2,1,-1,0
93,251,81,41,9,279.0,1.0,95,46,19,11,7,5,5,3,1,1
94,254,76,38,4,282.0,1.0,105,47,14,8,2,2,0,0,-1,0
95,257,74,37,2,285.0,3.0,95,47,12,7,0,1,1,1,-1,-1
