,index,midi_note_num,diatonic_note_num,chromatic_pitch_class,onset,duration,velocity,bar_count,relative_chromatic_pitch,relative_diatonic_pitch,chromatic_scale_degree,diatonic_scale_degree,chromatic_interval,diatonic_interval,parsons_code,parsons_cumsum
0,0,62,30,2,0.0,1.0,105,0,-3,-2,9,6,0,0,0,0
1,4,70,35,10,4.0,2.0,95,0,5,3,5,4,1,1,1,1
2,7,69,34,9,8.0,1.0,105,1,4,2,4,3,-1,-1,-1,0
3,12,60,29,0,12.0,1.0,95,1,-5,-3,7,5,-5,-3,-1,-1
4,16,62,30,2,16.0,1.0,105,2,-3,-2,9,6,-3,-2,1,0
5,20,70,35,10,20.0,3.0,95,2,5,3,5,4,1,1,1,1
6,22,70,35,10,24.0,1.0,105,3,5,3,5,4,0,0,0,1
7,26,70,35,10,28.0,1.0,95,3,5,3,5,4,1,1,0,1
8,30,62,30,2,32.0,1.0,105,4,-3,-2,9,6,-3,-2,-1,0
9,34,70,35,10,36.0,1.0,95,4,5,3,5,4,1,1,1,1
10,38,69,34,9,40.0,1.0,105,5,4,2,4,3,-1,-1,-1,0
11,43,60,29,0,44.0,1.0,95,5,-5,-3,7,5,-5,-3,-1,-1
12,47,62,30,2,48.0,1.0,105,6,-3,-2,9,6,-3,-2,1,0
13,51,70,35,10,52.0,3.0,95,6,5,3,5,4,1,1,1,1
14,53,72,36,0,56.0,1.0,105,7,7,4,7,5,-2,-1,1,2
15,57,69,34,9,60.0,1.0,95,7,4,2,4,3,-3,-2,-1,1
16,61,62,30,2,64.0,1.0,105,8,-3,-2,9,6,-3,-2,-1,0
17,65,70,35,10,68.0,2.0,95,8,5,3,5,4,1,1,1,1
18,68,69,34,9,72.0,1.0,105,9,4,2,4,3,-1,-1,-1,0
19,73,60,29,0,76.0,1.0,95,9,-5,-3,7,5,-5,-3,-1,-1
20,77,62,30,2,80.0,1.0,105,10,-3,-2,9,6,-3,-2,1,0
21,81,70,35,10,84.0,3.0,95,10,5,3,5,4,1,1,1,1
22,83,70,35,10,88.0,1.0,105,11,5,3,5,4,0,0,0,1
23,87,70,35,10,92.0,1.0,95,11,5,3,5,4,1,1,0,1
24,91,62,30,2,96.0,1.0,105,12,-3,-2,9,6,-3,-2,-1,0
25,95,70,35,10,100.0,1.0,95,12,5,3,5,4,1,1,1,1
26,99,69,34,9,104.0,1.0,105,13,4,2,4,3,-1,-1,-1,0
27,104,60,29,0,108.0,1.0,95,13,-5,-3,7,5,-5,-3,-1,-1
28,108,62,30,2,112.0,1.0,105,14,-3,-2,9,6,-3,-2,1,0
29,112,70,35,10,116.0,3.0,95,14,5,3,5,4,1,1,1,1
30,114,72,36,0,120.0,1.0,105,15,7,4,7,5,-2,-1,1,2
31,118,69,34,9,124.0,1.0,95,15,4,2,4,3,-3,-2,-1,1
32,122,70,35,10,128.0,2.0,105,16,5,3,5,4,1,1,1,2
33,125,65,32,5,132.0,1.0,95,16,0,0,0,1,-5,-3,-1,1
34,129,65,32,5,136.0,1.0,105,17,0,0,0,1,-5,-3,0,1
35,133,72,36,0,140.0,1.0,95,17,7,4,7,5,2,1,1,2
36,137,70,35,10,144.0,1.0,105,18,5,3,5,4,-2,-1,-1,1
37,141,65,32,5,148.0,1.0,95,18,0,0,0,1,-5,-3,-1,0
38,145,72,36,0,152.0,1.0,105,19,7,4,7,5,2,1,1,1
39,149,70,35,10,156.0,1.0,95,19,5,3,5,4,-2,-1,-1,0
40,153,70,35,10,160.0,2.0,105,20,5,3,5,4,1,1,0,0
41,156,72,36,0,164.0,2.0,95,20,7,4,7,5,-2,-1,1,1
42,159,70,35,10,168.0,2.0,105,21,5,3,5,4,-4,-2,-1,0
43,162,72,36,0,172.0,1.0,95,21,7,4,7,5,-2,-1,1,1
44,166,67,33,7,176.0,1.0,105,22,2,1,2,2,5,3,-1,0
45,170,70,35,10,180.0,1.0,95,22,5,3,5,4,-2,-1,1,1
46,174,72,36,0,184.0,1.0,105,23,7,4,7,5,-2,-1,1,2
47,178,69,34,9,188.0,1.0,95,23,4,2,4,3,-3,-2,-1,1
48,182,70,35,10,192.0,2.0,105,24,5,3,5,4,1,1,1,2
49,185,65,32,5,196.0,1.0,95,24,0,0,0,1,-5,-3,-1,1
50,189,65,32,5,200.0,1.0,105,25,0,0,0,1,-5,-3,0,1
51,193,72,36,0,204.0,1.0,95,25,7,4,7,5,2,1,1,2
52,197,70,35,10,208.0,1.0,105,26,5,3,5,4,-2,-1,-1,1
53,201,65,32,5,212.0,1.0,95,26,0,0,0,1,-5,-3,-1,0
54,205,72,36,0,216.0,1.0,105,27,7,4,7,5,2,1,1,1
55,209,70,35,10,220.0,1.0,95,27,5,3,5,4,-2,-1,-1,0
56,213,70,35,10,224.0,2.0,105,28,5,3,5,4,1,1,0,0
57,216,72,36,0,228.0,2.0,95,28,7,4,7,5,-2,-1,1,1
58,219,70,35,10,232.0,2.0,105,29,5,3,5,4,-4,-2,-1,0
59,222,72,36,0,236.0,1.0,95,29,7,4,7,5,-2,-1,1,1
60,226,67,33,7,240.0,1.0,105,30,2,1,2,2,5,3,-1,0
61,230,70,35,10,244.0,1.0,95,30,5,3,5,4,-2,-1,1,1
62,234,72,36,0,248.0,1.0,105,31,7,4,7,5,-2,-1,1,2
63,238,69,34,9,252.0,1.0,95,31,4,2,4,3,-3,-2,-1,1
64,241,79,40,7,256.0,1.0,105,32,14,8,2,2,12,7,1,2
65,246,79,40,7,260.0,1.0,95,32,14,8,2,2,5,3,0,2
66,250,77,39,5,264.0,1.0,105,33,12,7,0,1,-2,-1,-1,1
67,255,77,39,5,268.0,1.0,95,33,12,7,0,1,5,3,0,1
68,259,79,40,7,272.0,1.0,105,34,14,8,2,2,2,1,1,2
69,264,79,40,7,276.0,1.0,95,34,14,8,2,2,5,3,0,2
70,268,77,39,5,280.0,1.0,105,35,12,7,0,1,-2,-1,-1,1
71,272,70,35,10,284.0,1.0,95,35,5,3,5,4,-4,-2,-1,0
72,275,79,40,7,288.0,1.0,105,36,14,8,2,2,12,7,1,1
73,280,79,40,7,292.0,1.0,95,36,14,8,2,2,5,3,0,1
74,284,77,39,5,296.0,1.0,105,37,12,7,0,1,-2,-1,-1,0
75,289,77,39,5,300.0,1.0,95,37,12,7,0,1,5,3,0,0
76,293,70,35,10,304.0,2.0,105,38,5,3,5,4,-7,-4,-1,-1
77,296,70,35,10,308.0,1.0,95,38,5,3,5,4,1,1,0,-1
78,300,77,39,5,312.0,1.0,105,39,12,7,0,1,-2,-1,1,0
79,304,70,35,10,316.0,1.0,95,39,5,3,5,4,-4,-2,-1,-1
80,307,79,40,7,320.0,2.0,105,40,14,8,2,2,12,7,1,0
81,310,79,40,7,324.0,1.0,95,40,14,8,2,2,0,0,0,0
82,314,77,39,5,328.0,2.0,105,41,12,7,0,1,-2,-1,-1,-1
83,317,77,39,5,332.0,1.0,95,41,12,7,0,1,0,0,0,-1
84,321,79,40,7,336.0,2.0,105,42,14,8,2,2,2,1,1,0
85,324,79,40,7,340.0,1.0,95,42,14,8,2,2,0,0,0,0
86,328,77,39,5,344.0,1.0,105,43,12,7,0,1,-2,-1,-1,-1
87,332,70,35,10,348.0,1.0,95,43,5,3,5,4,-4,-2,-1,-2
88,335,79,40,7,352.0,1.0,105,44,14,8,2,2,12,7,1,-1
89,340,79,40,7,356.0,1.0,95,44,14,8,2,2,5,3,0,-1
90,344,77,39,5,360.0,1.0,105,45,12,7,0,1,-2,-1,-1,-2
91,349,77,39,5,364.0,1.0,95,45,12,7,0,1,5,3,0,-2
92,353,70,35,10,368.0,2.0,105,46,5,3,5,4,-7,-4,-1,-3
93,356,70,35,10,372.0,1.0,95,46,5,3,5,4,1,1,0,-3
94,360,77,39,5,376.0,1.0,105,47,12,7,0,1,-2,-1,1,-2
95,364,73,36,1,380.0,1.0,95,47,8,4,8,5,-1,-1,-1,-3
