,index,midi_note_num,diatonic_note_num,chromatic_pitch_class,onset,duration,velocity,bar_count,relative_chromatic_pitch,relative_diatonic_pitch,chromatic_scale_degree,diatonic_scale_degree,chromatic_interval,diatonic_interval,parsons_code,parsons_cumsum
0,1,67,33,7,1.0,1.0,105,0,0,0,0,1,0,0,0,0
1,4,72,36,0,4.0,2.0,95,0,5,3,5,4,1,1,1,1
2,6,71,35,11,7.0,1.0,105,1,4,2,4,3,2,1,-1,0
3,9,69,34,9,10.0,1.0,95,1,2,1,2,2,2,1,-1,-1
4,12,67,33,7,13.0,1.0,105,2,0,0,0,1,3,2,-1,-2
5,16,79,40,7,16.0,2.0,95,2,12,7,0,1,5,3,1,-1
6,18,74,37,2,19.0,1.0,105,3,7,4,7,5,-2,-1,-1,-2
7,21,74,37,2,22.0,1.0,95,3,7,4,7,5,-2,-1,0,-2
8,24,72,36,0,25.0,2.0,105,4,5,3,5,4,5,3,-1,-3
9,26,71,35,11,28.0,1.0,95,4,4,2,4,3,2,1,-1,-4
10,30,69,34,9,31.0,1.0,105,5,2,1,2,2,-2,-1,-1,-5
11,33,71,35,11,34.0,1.0,95,5,4,2,4,3,2,1,1,-4
12,36,62,30,2,37.0,1.0,105,6,-5,-3,7,5,-2,-1,-1,-5
13,40,69,34,9,40.0,1.0,95,6,2,1,2,2,2,1,1,-4
14,43,71,35,11,43.0,1.0,105,7,4,2,4,3,2,1,1,-3
15,46,67,33,7,46.0,2.0,95,7,0,0,0,1,1,1,-1,-4
16,48,67,33,7,49.0,1.0,105,8,0,0,0,1,5,3,0,-4
17,51,72,36,0,52.0,2.0,95,8,5,3,5,4,1,1,1,-3
18,53,71,35,11,55.0,1.0,105,9,4,2,4,3,2,1,-1,-4
19,56,69,34,9,58.0,1.0,95,9,2,1,2,2,2,1,-1,-5
20,59,67,33,7,61.0,1.0,105,10,0,0,0,1,3,2,-1,-6
21,63,79,40,7,64.0,2.0,95,10,12,7,0,1,5,3,1,-5
22,65,74,37,2,67.0,1.0,105,11,7,4,7,5,-2,-1,-1,-6
23,68,74,37,2,70.0,1.0,95,11,7,4,7,5,-2,-1,0,-6
24,71,72,36,0,73.0,2.0,105,12,5,3,5,4,5,3,-1,-7
25,73,71,35,11,76.0,1.0,95,12,4,2,4,3,2,1,-1,-8
26,77,69,34,9,79.0,1.0,105,13,2,1,2,2,-2,-1,-1,-9
27,80,71,35,11,82.0,1.0,95,13,4,2,4,3,2,1,1,-8
28,83,62,30,2,85.0,1.0,105,14,-5,-3,7,5,-2,-1,-1,-9
29,87,69,34,9,88.0,1.0,95,14,2,1,2,2,2,1,1,-8
30,90,71,35,11,91.0,1.0,105,15,4,2,4,3,2,1,1,-7
31,93,67,33,7,94.0,2.0,95,15,0,0,0,1,1,1,-1,-8
32,95,67,33,7,97.0,1.0,105,16,0,0,0,1,5,3,0,-8
33,99,79,40,7,100.0,2.0,95,16,12,7,0,1,5,3,1,-7
34,101,74,37,2,103.0,1.0,105,17,7,4,7,5,-2,-1,-1,-8
35,104,74,37,2,106.0,1.0,95,17,7,4,7,5,-2,-1,0,-8
36,107,69,34,9,109.0,1.0,105,18,2,1,2,2,2,1,-1,-9
37,110,81,41,9,112.0,3.0,95,18,14,8,2,2,5,3,1,-8
38,111,81,41,9,115.0,1.0,105,19,14,8,2,2,0,0,0,-8
39,114,81,41,9,118.0,1.0,95,19,14,8,2,2,-2,-1,0,-8
40,117,74,37,2,121.0,1.0,105,20,7,4,7,5,-2,-1,-1,-9
41,121,79,40,7,124.0,2.0,95,20,12,7,0,1,5,3,1,-8
42,123,74,37,2,127.0,1.0,105,21,7,4,7,5,-2,-1,-1,-9
43,126,74,37,2,130.0,1.0,95,21,7,4,7,5,-2,-1,0,-9
44,129,72,36,0,133.0,2.0,105,22,5,3,5,4,5,3,-1,-10
45,131,71,35,11,136.0,1.0,95,22,4,2,4,3,2,1,-1,-11
46,135,69,34,9,139.0,1.0,105,23,2,1,2,2,-2,-1,-1,-12
47,138,71,35,11,142.0,1.0,95,23,4,2,4,3,2,1,1,-11
48,141,67,33,7,145.0,1.0,105,24,0,0,0,1,3,2,-1,-12
49,144,72,36,0,148.0,2.0,95,24,5,3,5,4,1,1,1,-11
50,146,71,35,11,151.0,1.0,105,25,4,2,4,3,2,1,-1,-12
51,149,69,34,9,154.0,1.0,95,25,2,1,2,2,2,1,-1,-13
52,152,67,33,7,157.0,1.0,105,26,0,0,0,1,3,2,-1,-14
53,156,79,40,7,160.0,2.0,95,26,12,7,0,1,5,3,1,-13
54,158,74,37,2,163.0,1.0,105,27,7,4,7,5,-2,-1,-1,-14
55,161,74,37,2,166.0,1.0,95,27,7,4,7,5,-2,-1,0,-14
56,164,72,36,0,169.0,2.0,105,28,5,3,5,4,5,3,-1,-15
57,166,71,35,11,172.0,0.5,95,28,4,2,4,3,2,1,-1,-16
58,170,69,34,9,175.0,1.0,105,29,2,1,2,2,-2,-1,-1,-17
59,173,71,35,11,178.0,1.0,95,29,4,2,4,3,2,1,1,-16
60,176,62,30,2,181.0,1.0,105,30,-5,-3,7,5,-2,-1,-1,-17
61,180,69,34,9,184.0,1.0,95,30,2,1,2,2,2,1,1,-16
62,183,71,35,11,187.0,1.0,105,31,4,2,4,3,2,1,1,-15
63,186,67,33,7,190.0,2.0,95,31,0,0,0,1,1,1,-1,-16
64,188,67,33,7,193.0,1.0,105,32,0,0,0,1,5,3,0,-16
65,192,79,40,7,196.0,2.0,95,32,12,7,0,1,5,3,1,-15
66,194,74,37,2,199.0,1.0,105,33,7,4,7,5,-2,-1,-1,-16
67,197,74,37,2,202.0,1.0,95,33,7,4,7,5,-2,-1,0,-16
68,200,69,34,9,205.0,1.0,105,34,2,1,2,2,2,1,-1,-17
69,203,81,41,9,208.0,3.0,95,34,14,8,2,2,5,3,1,-16
70,204,81,41,9,211.0,1.0,105,35,14,8,2,2,0,0,0,-16
71,207,81,41,9,214.0,1.0,95,35,14,8,2,2,-2,-1,0,-16
72,210,74,37,2,217.0,1.0,105,36,7,4,7,5,-2,-1,-1,-17
73,214,79,40,7,220.0,2.0,95,36,12,7,0,1,5,3,1,-16
74,216,74,37,2,223.0,1.0,105,37,7,4,7,5,-2,-1,-1,-17
75,219,74,37,2,226.0,1.0,95,37,7,4,7,5,-2,-1,0,-17
76,222,72,36,0,229.0,2.0,105,38,5,3,5,4,5,3,-1,-18
77,224,71,35,11,232.0,1.0,95,38,4,2,4,3,2,1,-1,-19
78,228,69,34,9,235.0,1.0,105,39,2,1,2,2,-2,-1,-1,-20
79,231,71,35,11,238.0,1.0,95,39,4,2,4,3,2,1,1,-19
80,234,67,33,7,241.0,1.0,105,40,0,0,0,1,3,2,-1,-20
81,237,72,36,0,244.0,2.0,95,40,5,3,5,4,1,1,1,-19
82,239,71,35,11,247.0,1.0,105,41,4,2,4,3,2,1,-1,-20
83,242,69,34,9,250.0,1.0,95,41,2,1,2,2,2,1,-1,-21
84,245,67,33,7,253.0,1.0,105,42,0,0,0,1,3,2,-1,-22
85,249,79,40,7,256.0,2.0,95,42,12,7,0,1,5,3,1,-21
86,251,74,37,2,259.0,1.0,105,43,7,4,7,5,-2,-1,-1,-22
87,254,74,37,2,262.0,1.0,95,43,7,4,7,5,-2,-1,0,-22
88,257,72,36,0,265.0,2.0,105,44,5,3,5,4,5,3,-1,-23
89,259,71,35,11,268.0,0.5,95,44,4,2,4,3,2,1,-1,-24
90,263,69,34,9,271.0,1.0,105,45,2,1,2,2,-2,-1,-1,-25
91,266,71,35,11,274.0,1.0,95,45,4,2,4,3,2,1,1,-24
92,269,62,30,2,277.0,1.0,105,46,-5,-3,7,5,-2,-1,-1,-25
93,273,69,34,9,280.0,1.0,95,46,2,1,2,2,2,1,1,-24
94,276,71,35,11,283.0,1.0,105,47,4,2,4,3,2,1,1,-23
95,279,67,33,7,286.0,2.0,95,47,0,0,0,1,1,1,-1,-24
