,index,midi_note_num,diatonic_note_num,chromatic_pitch_class,onset,duration,velocity,bar_count,relative_chromatic_pitch,relative_diatonic_pitch,chromatic_scale_degree,diatonic_scale_degree,chromatic_interval,diatonic_interval,parsons_code,parsons_cumsum
0,0,67,33,7,0.0,2.0,105,0,3,2,3,3,0,0,0,0
1,2,71,35,11,3.0,1.0,95,0,7,4,7,5,2,1,1,1
2,5,71,35,11,6.0,1.0,95,0,7,4,7,5,7,4,0,1
3,8,66,32,6,9.0,2.0,105,1,2,1,2,2,2,1,-1,0
4,10,69,34,9,12.0,1.0,95,1,5,3,5,4,2,1,1,1
5,13,69,34,9,15.0,1.0,95,1,5,3,5,4,7,4,0,1
6,16,67,33,7,18.0,2.0,105,2,3,2,3,3,5,3,-1,0
7,18,71,35,11,21.0,1.0,95,2,7,4,7,5,2,1,1,1
8,21,71,35,11,24.0,1.0,95,2,7,4,7,5,7,4,0,1
9,24,74,37,2,27.0,1.0,105,3,10,6,10,7,10,6,1,2
10,27,69,34,9,30.0,1.0,95,3,5,3,5,4,-2,-1,-1,1
11,30,64,31,4,33.0,3.0,95,3,0,0,0,1,-2,-1,-1,0
12,31,67,33,7,36.0,2.0,105,4,3,2,3,3,3,2,1,1
13,33,71,35,11,39.0,1.0,95,4,7,4,7,5,2,1,1,2
14,36,71,35,11,42.0,1.0,95,4,7,4,7,5,7,4,0,2
15,39,66,32,6,45.0,2.0,105,5,2,1,2,2,2,1,-1,1
16,41,69,34,9,48.0,1.0,95,5,5,3,5,4,2,1,1,2
17,44,69,34,9,51.0,1.0,95,5,5,3,5,4,7,4,0,2
18,47,67,33,7,54.0,2.0,105,6,3,2,3,3,5,3,-1,1
19,49,71,35,11,57.0,1.0,95,6,7,4,7,5,2,1,1,2
20,52,71,35,11,60.0,1.0,95,6,7,4,7,5,7,4,0,2
21,55,74,37,2,63.0,1.0,105,7,10,6,10,7,10,6,1,3
22,58,69,34,9,66.0,1.0,95,7,5,3,5,4,-2,-1,-1,2
23,61,64,31,4,69.0,3.0,95,7,0,0,0,1,-2,-1,-1,1
24,62,76,38,4,72.0,2.0,105,8,12,7,0,1,12,7,1,2
25,64,79,40,7,75.0,2.0,95,8,15,9,3,3,1,1,1,3
26,66,83,42,11,78.0,1.0,95,8,19,11,7,5,2,1,1,4
27,69,74,37,2,81.0,2.0,105,9,10,6,10,7,-2,-1,-1,3
28,71,78,39,6,84.0,2.0,95,9,14,8,2,2,2,1,1,4
29,73,81,41,9,87.0,1.0,95,9,17,10,5,4,2,1,1,5
30,76,76,38,4,90.0,2.0,105,10,12,7,0,1,2,1,-1,4
31,78,79,40,7,93.0,2.0,95,10,15,9,3,3,1,1,1,5
32,80,83,42,11,96.0,1.0,95,10,19,11,7,5,2,1,1,6
33,83,74,37,2,99.0,1.0,105,11,10,6,10,7,-2,-1,-1,5
34,86,69,34,9,102.0,1.0,95,11,5,3,5,4,-2,-1,-1,4
35,89,64,31,4,105.0,3.0,95,11,0,0,0,1,-2,-1,-1,3
36,90,76,38,4,108.0,2.0,105,12,12,7,0,1,12,7,1,4
37,92,79,40,7,111.0,2.0,95,12,15,9,3,3,1,1,1,5
38,94,83,42,11,114.0,1.0,95,12,19,11,7,5,2,1,1,6
39,97,74,37,2,117.0,1.0,105,13,10,6,10,7,-2,-1,-1,5
40,100,74,37,2,120.0,2.0,95,13,10,6,10,7,0,0,0,5
41,102,81,41,9,123.0,1.0,95,13,17,10,5,4,3,2,1,6
42,105,79,40,7,126.0,1.0,105,14,15,9,3,3,5,3,-1,5
43,108,78,39,6,129.0,1.0,95,14,14,8,2,2,-1,-1,-1,4
44,111,76,38,4,132.0,1.0,95,14,12,7,0,1,-2,-1,-1,3
45,114,74,37,2,135.0,1.0,105,15,10,6,10,7,-2,-1,-1,2
46,117,69,34,9,138.0,1.0,95,15,5,3,5,4,-2,-1,-1,1
47,120,64,31,4,141.0,3.0,95,15,0,0,0,1,-2,-1,-1,0
48,121,67,33,7,144.0,2.0,105,16,3,2,3,3,3,2,1,1
49,123,64,31,4,147.0,2.0,95,16,0,0,0,1,-7,-4,-1,0
50,125,71,35,11,150.0,1.0,95,16,7,4,7,5,0,0,1,1
51,128,66,32,6,153.0,2.0,105,17,2,1,2,2,-1,-1,-1,0
52,130,62,30,2,156.0,2.0,95,17,-2,-1,10,7,-7,-4,-1,-1
53,132,69,34,9,159.0,1.0,95,17,5,3,5,4,0,0,1,0
54,135,67,33,7,162.0,2.0,105,18,3,2,3,3,1,1,-1,-1
55,137,64,31,4,165.0,2.0,95,18,0,0,0,1,-7,-4,-1,-2
56,139,71,35,11,168.0,1.0,95,18,7,4,7,5,0,0,1,-1
57,142,71,35,11,171.0,0.5,105,19,7,4,7,5,4,2,0,-1
58,146,69,34,9,174.0,1.0,95,19,5,3,5,4,-2,-1,-1,-2
59,149,62,30,2,177.0,1.0,95,19,-2,-1,10,7,-4,-2,-1,-3
60,152,67,33,7,180.0,2.0,105,20,3,2,3,3,1,1,1,-2
61,154,64,31,4,183.0,2.0,95,20,0,0,0,1,-7,-4,-1,-3
62,156,71,35,11,186.0,1.0,95,20,7,4,7,5,0,0,1,-2
63,159,66,32,6,189.0,2.0,105,21,2,1,2,2,-1,-1,-1,-3
64,161,62,30,2,192.0,2.0,95,21,-2,-1,10,7,-7,-4,-1,-4
65,163,69,34,9,195.0,1.0,95,21,5,3,5,4,0,0,1,-3
66,166,67,33,7,198.0,2.0,105,22,3,2,3,3,1,1,-1,-4
67,168,64,31,4,201.0,2.0,95,22,0,0,0,1,-7,-4,-1,-5
68,170,71,35,11,204.0,1.0,95,22,7,4,7,5,0,0,1,-4
69,173,71,35,11,207.0,0.5,105,23,7,4,7,5,4,2,0,-4
70,177,69,34,9,210.0,1.0,95,23,5,3,5,4,-2,-1,-1,-5
71,180,64,31,4,213.0,3.0,95,23,0,0,0,1,-2,-1,-1,-6
72,181,79,40,7,216.0,2.0,105,24,15,9,3,3,15,9,1,-5
73,183,79,40,7,219.0,2.0,95,24,15,9,3,3,3,2,0,-5
74,185,76,38,4,222.0,1.0,95,24,12,7,0,1,0,0,-1,-6
75,188,78,39,6,225.0,2.0,105,25,14,8,2,2,7,4,1,-5
76,190,74,37,2,228.0,1.0,95,25,10,6,10,7,0,0,-1,-6
77,193,78,39,6,231.0,1.0,95,25,14,8,2,2,4,2,1,-5
78,196,79,40,7,234.0,1.0,105,26,15,9,3,3,5,3,1,-4
79,199,78,39,6,237.0,1.0,95,26,14,8,2,2,2,1,-1,-5
80,202,76,38,4,240.0,1.0,95,26,12,7,0,1,2,1,-1,-6
81,205,71,35,11,243.0,0.5,105,27,7,4,7,5,2,1,-1,-7
82,209,69,34,9,246.0,1.0,95,27,5,3,5,4,-2,-1,-1,-8
83,212,64,31,4,249.0,3.0,95,27,0,0,0,1,-2,-1,-1,-9
84,213,64,31,4,252.0,2.0,105,28,0,0,0,1,0,0,0,-9
85,215,67,33,7,255.0,2.0,95,28,3,2,3,3,1,1,1,-8
86,217,71,35,11,258.0,1.0,95,28,7,4,7,5,2,1,1,-7
87,220,62,30,2,261.0,2.0,105,29,-2,-1,10,7,-2,-1,-1,-8
88,222,66,32,6,264.0,2.0,95,29,2,1,2,2,2,1,1,-7
89,224,69,34,9,267.0,1.0,95,29,5,3,5,4,2,1,1,-6
90,227,64,31,4,270.0,2.0,105,30,0,0,0,1,2,1,-1,-7
91,229,67,33,7,273.0,2.0,95,30,3,2,3,3,1,1,1,-6
92,231,71,35,11,276.0,1.0,95,30,7,4,7,5,2,1,1,-5
93,234,71,35,11,279.0,1.0,105,31,7,4,7,5,7,4,0,-5
94,237,69,34,9,282.0,1.0,95,31,5,3,5,4,-2,-1,-1,-6
95,240,64,31,4,285.0,3.0,95,31,0,0,0,1,-2,-1,-1,-7
96,241,67,33,7,288.0,2.0,105,32,3,2,3,3,3,2,1,-6
97,243,64,31,4,291.0,2.0,95,32,0,0,0,1,-7,-4,-1,-7
98,245,71,35,11,294.0,1.0,95,32,7,4,7,5,0,0,1,-6
99,248,66,32,6,297.0,2.0,105,33,2,1,2,2,-1,-1,-1,-7
100,250,62,30,2,300.0,2.0,95,33,-2,-1,10,7,-7,-4,-1,-8
101,252,69,34,9,303.0,1.0,95,33,5,3,5,4,0,0,1,-7
102,255,67,33,7,306.0,2.0,105,34,3,2,3,3,1,1,-1,-8
103,257,64,31,4,309.0,2.0,95,34,0,0,0,1,-7,-4,-1,-9
104,259,71,35,11,312.0,1.0,95,34,7,4,7,5,0,0,1,-8
105,262,79,40,7,315.0,2.0,105,35,15,9,3,3,12,7,1,-7
106,264,79,40,7,318.0,2.0,95,35,15,9,3,3,3,2,0,-7
107,266,76,38,4,321.0,1.0,95,35,12,7,0,1,0,0,-1,-8
108,269,78,39,6,324.0,2.0,105,36,14,8,2,2,7,4,1,-7
109,271,74,37,2,327.0,1.0,95,36,10,6,10,7,0,0,-1,-8
110,274,78,39,6,330.0,1.0,95,36,14,8,2,2,4,2,1,-7
111,277,64,31,4,333.0,2.0,105,37,0,0,0,1,-10,-6,-1,-8
112,279,67,33,7,336.0,2.0,95,37,3,2,3,3,1,1,1,-7
113,281,71,35,11,339.0,1.0,95,37,7,4,7,5,2,1,1,-6
114,284,62,30,2,342.0,2.0,105,38,-2,-1,10,7,-2,-1,-1,-7
115,286,66,32,6,345.0,2.0,95,38,2,1,2,2,2,1,1,-6
116,288,69,34,9,348.0,1.0,95,38,5,3,5,4,2,1,1,-5
117,291,64,31,4,351.0,2.0,105,39,0,0,0,1,2,1,-1,-6
118,293,67,33,7,354.0,2.0,95,39,3,2,3,3,1,1,1,-5
119,295,71,35,11,357.0,1.0,95,39,7,4,7,5,2,1,1,-4
120,298,71,35,11,360.0,1.0,105,40,7,4,7,5,7,4,0,-4
121,301,69,34,9,363.0,1.0,95,40,5,3,5,4,-2,-1,-1,-5
122,304,64,31,4,366.0,3.0,95,40,0,0,0,1,-2,-1,-1,-6
123,305,76,38,4,369.0,1.0,105,41,12,7,0,1,12,7,1,-5
124,308,76,38,4,372.0,2.0,95,41,12,7,0,1,0,0,0,-5
125,310,79,40,7,375.0,1.0,95,41,15,9,3,3,1,1,1,-4
126,313,74,37,2,378.0,1.0,105,42,10,6,10,7,-2,-1,-1,-5
127,316,74,37,2,381.0,2.0,95,42,10,6,10,7,0,0,0,-5
128,318,78,39,6,384.0,1.0,95,42,14,8,2,2,2,1,1,-4
129,321,76,38,4,387.0,1.0,105,43,12,7,0,1,2,1,-1,-5
130,324,76,38,4,390.0,2.0,95,43,12,7,0,1,0,0,0,-5
131,326,79,40,7,393.0,1.0,95,43,15,9,3,3,1,1,1,-4
132,329,74,37,2,396.0,1.0,105,44,10,6,10,7,-2,-1,-1,-5
133,332,69,34,9,399.0,1.0,95,44,5,3,5,4,-2,-1,-1,-6
134,335,64,31,4,402.0,3.0,95,44,0,0,0,1,-2,-1,-1,-7
