,index,midi_note_num,diatonic_note_num,chromatic_pitch_class,onset,duration,velocity,bar_count,relative_chromatic_pitch,relative_diatonic_pitch,chromatic_scale_degree,diatonic_scale_degree,chromatic_interval,diatonic_interval,parsons_code,parsons_cumsum
0,0,69,34,9,0.0,2.0,105,0,2,1,2,2,0,0,0,0
1,2,72,36,0,3.0,1.0,95,0,5,3,5,4,1,1,1,1
2,5,76,38,4,6.0,1.0,105,1,9,5,9,6,7,4,1,2
3,8,72,36,0,9.0,1.0,95,1,5,3,5,4,1,1,-1,1
4,11,67,33,7,12.0,1.0,105,2,0,0,0,1,-2,-1,-1,0
5,14,64,31,4,15.0,1.0,95,2,-3,-2,9,6,-3,-2,-1,-1
6,17,62,30,2,18.0,1.0,105,3,-5,-3,7,5,-5,-3,-1,-2
7,20,64,31,4,21.0,1.0,95,3,-3,-2,9,6,-3,-2,1,-1
8,23,69,34,9,24.0,2.0,105,4,2,1,2,2,2,1,1,0
9,25,72,36,0,27.0,1.0,95,4,5,3,5,4,1,1,1,1
10,28,76,38,4,30.0,2.0,105,5,9,5,9,6,7,4,1,2
11,30,76,38,4,33.0,1.0,95,5,9,5,9,6,2,1,0,2
12,33,81,41,9,36.0,1.0,105,6,14,8,2,2,2,1,1,3
13,36,74,37,2,39.0,1.0,95,6,7,4,7,5,-2,-1,-1,2
14,39,69,34,9,42.0,1.0,105,7,2,1,2,2,2,1,-1,1
15,44,69,34,9,45.0,2.0,95,7,2,1,2,2,0,0,0,1
16,46,69,34,9,48.0,2.0,105,8,2,1,2,2,5,3,0,1
17,48,72,36,0,51.0,1.0,95,8,5,3,5,4,1,1,1,2
18,51,76,38,4,54.0,1.0,105,9,9,5,9,6,7,4,1,3
19,54,72,36,0,57.0,1.0,95,9,5,3,5,4,1,1,-1,2
20,57,67,33,7,60.0,1.0,105,10,0,0,0,1,-2,-1,-1,1
21,60,64,31,4,63.0,1.0,95,10,-3,-2,9,6,-3,-2,-1,0
22,63,62,30,2,66.0,1.0,105,11,-5,-3,7,5,-5,-3,-1,-1
23,66,64,31,4,69.0,1.0,95,11,-3,-2,9,6,-3,-2,1,0
24,69,69,34,9,72.0,2.0,105,12,2,1,2,2,2,1,1,1
25,71,72,36,0,75.0,1.0,95,12,5,3,5,4,1,1,1,2
26,74,76,38,4,78.0,2.0,105,13,9,5,9,6,7,4,1,3
27,76,76,38,4,81.0,1.0,95,13,9,5,9,6,2,1,0,3
28,79,81,41,9,84.0,1.0,105,14,14,8,2,2,2,1,1,4
29,82,74,37,2,87.0,1.0,95,14,7,4,7,5,-2,-1,-1,3
30,85,69,34,9,90.0,1.0,105,15,2,1,2,2,2,1,-1,2
31,90,69,34,9,93.0,2.0,95,15,2,1,2,2,0,0,0,2
32,92,81,41,9,96.0,1.0,105,16,14,8,2,2,5,3,1,3
33,97,81,41,9,99.0,1.0,95,16,14,8,2,2,0,0,0,3
34,100,74,37,2,102.0,1.0,105,17,7,4,7,5,-2,-1,-1,2
35,104,79,40,7,105.0,3.0,95,17,12,7,0,1,5,3,1,3
36,105,79,40,7,108.0,1.0,105,18,12,7,0,1,0,0,0,3
37,108,79,40,7,111.0,1.0,95,18,12,7,0,1,0,0,0,3
38,111,74,37,2,114.0,1.0,105,19,7,4,7,5,-2,-1,-1,2
39,114,67,33,7,117.0,1.0,95,19,0,0,0,1,-2,-1,-1,1
40,117,64,31,4,120.0,1.0,105,20,-3,-2,9,6,-3,-2,-1,0
41,120,62,30,2,123.0,1.0,95,20,-5,-3,7,5,-5,-3,-1,-1
42,123,64,31,4,126.0,1.0,105,21,-3,-2,9,6,-3,-2,1,0
43,126,69,34,9,129.0,1.0,95,21,2,1,2,2,2,1,1,1
44,129,71,35,11,132.0,1.0,105,22,4,2,4,3,-1,-1,1,2
45,132,71,35,11,135.0,1.0,95,22,4,2,4,3,-3,-2,0,2
46,135,69,34,9,138.0,1.0,105,23,2,1,2,2,2,1,-1,1
47,140,69,34,9,141.0,2.0,95,23,2,1,2,2,0,0,0,1
48,142,81,41,9,144.0,1.0,105,24,14,8,2,2,5,3,1,2
49,147,81,41,9,147.0,1.0,95,24,14,8,2,2,0,0,0,2
50,150,74,37,2,150.0,1.0,105,25,7,4,7,5,-2,-1,-1,1
51,154,79,40,7,153.0,3.0,95,25,12,7,0,1,5,3,1,2
52,155,79,40,7,156.0,1.0,105,26,12,7,0,1,0,0,0,2
53,158,79,40,7,159.0,1.0,95,26,12,7,0,1,0,0,0,2
54,161,74,37,2,162.0,1.0,105,27,7,4,7,5,-2,-1,-1,1
55,164,67,33,7,165.0,1.0,95,27,0,0,0,1,-2,-1,-1,0
56,167,64,31,4,168.0,1.0,105,28,-3,-2,9,6,-3,-2,-1,-1
57,170,62,30,2,171.0,1.0,95,28,-5,-3,7,5,-5,-3,-1,-2
58,173,64,31,4,174.0,1.0,105,29,-3,-2,9,6,-3,-2,1,-1
59,176,69,34,9,177.0,1.0,95,29,2,1,2,2,2,1,1,0
60,179,71,35,11,180.0,1.0,105,30,4,2,4,3,-1,-1,1,1
61,182,71,35,11,183.0,1.0,95,30,4,2,4,3,-3,-2,0,1
62,185,69,34,9,186.0,1.0,105,31,2,1,2,2,2,1,-1,0
63,190,69,34,9,189.0,2.0,95,31,2,1,2,2,0,0,0,0
64,192,69,34,9,192.0,2.0,105,32,2,1,2,2,5,3,0,0
65,194,79,40,7,195.0,2.0,95,32,12,7,0,1,10,6,1,1
66,196,69,34,9,198.0,2.0,105,33,2,1,2,2,-9,-5,-1,0
67,198,76,38,4,201.0,1.0,95,33,9,5,9,6,7,4,1,1
68,201,67,33,7,204.0,2.0,105,34,0,0,0,1,-4,-2,-1,0
69,203,76,38,4,207.0,1.0,95,34,9,5,9,6,0,0,1,1
70,206,67,33,7,210.0,2.0,105,35,0,0,0,1,-4,-2,-1,0
71,208,76,38,4,213.0,1.0,95,35,9,5,9,6,0,0,1,1
72,211,69,34,9,216.0,2.0,105,36,2,1,2,2,-2,-1,-1,0
73,213,79,40,7,219.0,2.0,95,36,12,7,0,1,10,6,1,1
74,215,69,34,9,222.0,2.0,105,37,2,1,2,2,-9,-5,-1,0
75,217,76,38,4,225.0,1.0,95,37,9,5,9,6,0,0,1,1
76,220,81,41,9,228.0,1.0,105,38,14,8,2,2,2,1,1,2
77,223,74,37,2,231.0,1.0,95,38,7,4,7,5,-2,-1,-1,1
78,226,69,34,9,234.0,1.0,105,39,2,1,2,2,2,1,-1,0
79,231,69,34,9,237.0,2.0,95,39,2,1,2,2,0,0,0,0
80,233,69,34,9,240.0,2.0,105,40,2,1,2,2,5,3,0,0
81,235,79,40,7,243.0,2.0,95,40,12,7,0,1,10,6,1,1
82,237,69,34,9,246.0,2.0,105,41,2,1,2,2,-9,-5,-1,0
83,239,76,38,4,249.0,1.0,95,41,9,5,9,6,7,4,1,1
84,242,67,33,7,252.0,2.0,105,42,0,0,0,1,-4,-2,-1,0
85,244,76,38,4,255.0,1.0,95,42,9,5,9,6,0,0,1,1
86,247,67,33,7,258.0,2.0,105,43,0,0,0,1,-4,-2,-1,0
87,249,76,38,4,261.0,1.0,95,43,9,5,9,6,0,0,1,1
88,252,69,34,9,264.0,2.0,105,44,2,1,2,2,-2,-1,-1,0
89,254,79,40,7,267.0,2.0,95,44,12,7,0,1,10,6,1,1
90,256,69,34,9,270.0,2.0,105,45,2,1,2,2,-9,-5,-1,0
91,258,76,38,4,273.0,1.0,95,45,9,5,9,6,0,0,1,1
92,261,81,41,9,276.0,1.0,105,46,14,8,2,2,2,1,1,2
93,264,74,37,2,279.0,1.0,95,46,7,4,7,5,-2,-1,-1,1
94,267,69,34,9,282.0,1.0,105,47,2,1,2,2,2,1,-1,0
95,272,69,34,9,285.0,2.0,95,47,2,1,2,2,0,0,0,0
