,index,midi_note_num,diatonic_note_num,chromatic_pitch_class,onset,duration,velocity,bar_count,relative_chromatic_pitch,relative_diatonic_pitch,chromatic_scale_degree,diatonic_scale_degree,chromatic_interval,diatonic_interval,parsons_code,parsons_cumsum
0,0,67,33,7,0.0,2.0,105,0,0,0,0,1,0,0,0,0
1,2,67,33,7,3.0,2.0,95,0,0,0,0,1,0,0,0,0
2,4,71,35,11,6.0,2.0,95,0,4,2,4,3,2,1,1,1
3,6,79,40,7,9.0,1.0,95,0,12,7,0,1,0,0,1,2
4,9,74,37,2,12.0,2.0,105,1,7,4,7,5,-2,-1,-1,1
5,11,71,35,11,15.0,1.0,95,1,4,2,4,3,0,0,-1,0
6,14,74,37,2,18.0,2.0,95,1,7,4,7,5,3,2,1,1
7,16,69,34,9,21.0,1.0,95,1,2,1,2,2,-2,-1,-1,0
8,19,67,33,7,24.0,2.0,105,2,0,0,0,1,-2,-1,-1,-1
9,21,67,33,7,27.0,2.0,95,2,0,0,0,1,0,0,0,-1
10,23,71,35,11,30.0,2.0,95,2,4,2,4,3,2,1,1,0
11,25,78,39,6,33.0,1.0,95,2,11,6,11,7,-1,-1,1,1
12,27,74,37,2,35.0,2.0,105,3,7,4,7,5,-2,-1,-1,0
13,29,69,34,9,38.0,1.0,95,3,2,1,2,2,-2,-1,-1,-1
14,32,67,33,7,41.0,1.0,95,3,0,0,0,1,-2,-1,-1,-2
15,35,67,33,7,44.0,2.0,95,3,0,0,0,1,0,0,0,-2
16,37,67,33,7,47.0,2.0,105,4,0,0,0,1,5,3,0,-2
17,39,67,33,7,50.0,2.0,95,4,0,0,0,1,0,0,0,-2
18,41,71,35,11,53.0,2.0,95,4,4,2,4,3,2,1,1,-1
19,43,79,40,7,56.0,1.0,95,4,12,7,0,1,0,0,1,0
20,46,74,37,2,59.0,2.0,105,5,7,4,7,5,-2,-1,-1,-1
21,48,71,35,11,62.0,1.0,95,5,4,2,4,3,0,0,-1,-2
22,51,74,37,2,65.0,2.0,95,5,7,4,7,5,3,2,1,-1
23,53,69,34,9,68.0,1.0,95,5,2,1,2,2,-2,-1,-1,-2
24,56,67,33,7,71.0,2.0,105,6,0,0,0,1,-2,-1,-1,-3
25,58,67,33,7,74.0,2.0,95,6,0,0,0,1,0,0,0,-3
26,60,71,35,11,77.0,2.0,95,6,4,2,4,3,2,1,1,-2
27,62,78,39,6,80.0,1.0,95,6,11,6,11,7,-1,-1,1,-1
28,64,74,37,2,82.0,2.0,105,7,7,4,7,5,-2,-1,-1,-2
29,66,69,34,9,85.0,1.0,95,7,2,1,2,2,-2,-1,-1,-3
30,69,67,33,7,88.0,1.0,95,7,0,0,0,1,-2,-1,-1,-4
31,72,67,33,7,91.0,1.0,95,7,0,0,0,1,0,0,0,-4
32,75,67,33,7,94.0,2.0,105,8,0,0,0,1,-7,-4,0,-4
33,77,67,33,7,97.0,2.0,95,8,0,0,0,1,0,0,0,-4
34,79,71,35,11,100.0,2.0,95,8,4,2,4,3,2,1,1,-3
35,81,79,40,7,103.0,1.0,95,8,12,7,0,1,0,0,1,-2
36,84,74,37,2,106.0,2.0,105,9,7,4,7,5,-2,-1,-1,-3
37,86,71,35,11,109.0,1.0,95,9,4,2,4,3,0,0,-1,-4
38,89,74,37,2,112.0,2.0,95,9,7,4,7,5,3,2,1,-3
39,91,69,34,9,115.0,1.0,95,9,2,1,2,2,-2,-1,-1,-4
40,94,67,33,7,118.0,2.0,105,10,0,0,0,1,-2,-1,-1,-5
41,96,67,33,7,121.0,2.0,95,10,0,0,0,1,0,0,0,-5
42,98,71,35,11,124.0,2.0,95,10,4,2,4,3,2,1,1,-4
43,100,78,39,6,127.0,1.0,95,10,11,6,11,7,-1,-1,1,-3
44,102,79,40,7,129.0,2.0,105,11,12,7,0,1,3,2,1,-2
45,104,76,38,4,132.0,2.0,95,11,9,5,9,6,-2,-1,-1,-3
46,106,76,38,4,135.0,2.0,95,11,9,5,9,6,2,1,0,-3
47,108,79,40,7,138.0,2.0,95,11,12,7,0,1,1,1,1,-2
48,110,74,37,2,141.0,2.0,105,12,7,4,7,5,-2,-1,-1,-3
49,112,71,35,11,144.0,1.0,95,12,4,2,4,3,0,0,-1,-4
50,115,74,37,2,147.0,2.0,95,12,7,4,7,5,3,2,1,-3
51,117,71,35,11,150.0,1.0,95,12,4,2,4,3,0,0,-1,-4
52,120,79,40,7,153.0,2.0,105,13,12,7,0,1,8,5,1,-3
53,122,76,38,4,156.0,2.0,95,13,9,5,9,6,-2,-1,-1,-4
54,124,76,38,4,159.0,2.0,95,13,9,5,9,6,2,1,0,-4
55,126,79,40,7,162.0,2.0,95,13,12,7,0,1,1,1,1,-3
56,128,74,37,2,165.0,2.0,105,14,7,4,7,5,-2,-1,-1,-4
57,130,69,34,9,168.0,1.0,95,14,2,1,2,2,-2,-1,-1,-5
58,133,67,33,7,171.0,1.0,95,14,0,0,0,1,-2,-1,-1,-6
59,136,67,33,7,174.0,1.0,95,14,0,0,0,1,0,0,0,-6
60,139,79,40,7,177.0,2.0,105,15,12,7,0,1,5,3,1,-5
61,141,76,38,4,180.0,2.0,95,15,9,5,9,6,-2,-1,-1,-6
62,143,76,38,4,183.0,2.0,95,15,9,5,9,6,2,1,0,-6
63,145,79,40,7,186.0,2.0,95,15,12,7,0,1,1,1,1,-5
64,147,74,37,2,189.0,2.0,105,16,7,4,7,5,-2,-1,-1,-6
65,149,71,35,11,192.0,1.0,95,16,4,2,4,3,0,0,-1,-7
66,152,74,37,2,195.0,2.0,95,16,7,4,7,5,3,2,1,-6
67,154,71,35,11,198.0,1.0,95,16,4,2,4,3,0,0,-1,-7
68,157,79,40,7,201.0,2.0,105,17,12,7,0,1,8,5,1,-6
69,159,76,38,4,204.0,2.0,95,17,9,5,9,6,-2,-1,-1,-7
70,161,76,38,4,207.0,2.0,95,17,9,5,9,6,2,1,0,-7
71,163,79,40,7,210.0,2.0,95,17,12,7,0,1,1,1,1,-6
72,165,74,37,2,213.0,2.0,105,18,7,4,7,5,-2,-1,-1,-7
73,167,69,34,9,216.0,1.0,95,18,2,1,2,2,-2,-1,-1,-8
74,170,67,33,7,219.0,1.0,95,18,0,0,0,1,-2,-1,-1,-9
75,173,67,33,7,222.0,2.0,95,18,0,0,0,1,0,0,0,-9
76,175,79,40,7,225.0,2.0,105,19,12,7,0,1,17,10,1,-8
77,177,76,38,4,228.0,2.0,95,19,9,5,9,6,-2,-1,-1,-9
78,179,76,38,4,231.0,2.0,95,19,9,5,9,6,2,1,0,-9
79,181,79,40,7,234.0,2.0,95,19,12,7,0,1,1,1,1,-8
80,183,74,37,2,237.0,2.0,105,20,7,4,7,5,-2,-1,-1,-9
81,185,71,35,11,240.0,1.0,95,20,4,2,4,3,0,0,-1,-10
82,188,74,37,2,243.0,2.0,95,20,7,4,7,5,3,2,1,-9
83,190,71,35,11,246.0,1.0,95,20,4,2,4,3,0,0,-1,-10
84,193,79,40,7,249.0,2.0,105,21,12,7,0,1,8,5,1,-9
85,195,76,38,4,252.0,2.0,95,21,9,5,9,6,-2,-1,-1,-10
86,197,76,38,4,255.0,2.0,95,21,9,5,9,6,2,1,0,-10
87,199,79,40,7,258.0,2.0,95,21,12,7,0,1,1,1,1,-9
