,index,midi_note_num,diatonic_note_num,chromatic_pitch_class,onset,duration,velocity,bar_count,relative_chromatic_pitch,relative_diatonic_pitch,chromatic_scale_degree,diatonic_scale_degree,chromatic_interval,diatonic_interval,parsons_code,parsons_cumsum
0,0,67,33,7,0.0,2.0,105,0,0,0,0,1,0,0,0,0
1,2,62,30,2,3.0,1.0,95,0,-5,-3,7,5,-5,-3,-1,-1
2,5,62,30,2,6.0,1.0,105,1,-5,-3,7,5,-5,-3,0,-1
3,8,64,31,4,9.0,2.0,95,1,-3,-2,9,6,-3,-2,1,0
4,10,67,33,7,12.0,2.0,105,2,0,0,0,1,5,3,1,1
5,12,62,30,2,15.0,1.0,95,2,-5,-3,7,5,-5,-3,-1,0
6,15,69,34,9,18.0,3.0,105,3,2,1,2,2,2,1,1,1
7,16,69,34,9,21.0,1.0,95,3,2,1,2,2,0,0,0,1
8,19,67,33,7,24.0,2.0,105,4,0,0,0,1,1,1,-1,0
9,21,62,30,2,27.0,1.0,95,4,-5,-3,7,5,-5,-3,-1,-1
10,24,62,30,2,30.0,1.0,105,5,-5,-3,7,5,-5,-3,0,-1
11,27,64,31,4,33.0,2.0,95,5,-3,-2,9,6,-3,-2,1,0
12,29,71,35,11,36.0,3.0,105,6,4,2,4,3,9,5,1,1
13,30,71,35,11,39.0,1.0,95,6,4,2,4,3,0,0,0,1
14,33,69,34,9,42.0,3.0,105,7,2,1,2,2,2,1,-1,0
15,34,69,34,9,45.0,3.0,95,7,2,1,2,2,0,0,0,0
16,35,67,33,7,48.0,2.0,105,8,0,0,0,1,-2,-1,-1,-1
17,37,62,30,2,51.0,1.0,95,8,-5,-3,7,5,-5,-3,-1,-2
18,40,62,30,2,54.0,1.0,105,9,-5,-3,7,5,-5,-3,0,-2
19,43,64,31,4,57.0,2.0,95,9,-3,-2,9,6,-3,-2,1,-1
20,45,67,33,7,60.0,2.0,105,10,0,0,0,1,5,3,1,0
21,47,62,30,2,63.0,1.0,95,10,-5,-3,7,5,-5,-3,-1,-1
22,50,69,34,9,66.0,3.0,105,11,2,1,2,2,2,1,1,0
23,51,69,34,9,69.0,1.0,95,11,2,1,2,2,0,0,0,0
24,54,67,33,7,72.0,2.0,105,12,0,0,0,1,1,1,-1,-1
25,56,62,30,2,75.0,1.0,95,12,-5,-3,7,5,-5,-3,-1,-2
26,59,62,30,2,78.0,1.0,105,13,-5,-3,7,5,-5,-3,0,-2
27,62,64,31,4,81.0,2.0,95,13,-3,-2,9,6,-3,-2,1,-1
28,64,71,35,11,84.0,3.0,105,14,4,2,4,3,9,5,1,0
29,65,71,35,11,87.0,1.0,95,14,4,2,4,3,0,0,0,0
30,68,69,34,9,90.0,3.0,105,15,2,1,2,2,2,1,-1,-1
31,69,69,34,9,93.0,1.0,95,15,2,1,2,2,0,0,0,-1
32,72,76,38,4,96.0,2.0,105,16,9,5,9,6,2,1,1,0
33,74,76,38,4,99.0,1.0,95,16,9,5,9,6,0,0,0,0
34,77,74,37,2,102.0,1.0,105,17,7,4,7,5,3,2,-1,-1
35,80,76,38,4,105.0,2.0,95,17,9,5,9,6,-3,-2,1,0
36,82,72,36,0,108.0,2.0,105,18,5,3,5,4,-2,-1,-1,-1
37,84,71,35,11,111.0,1.0,95,18,4,2,4,3,-1,-1,-1,-2
38,87,69,34,9,114.0,6.0,105,19,2,1,2,2,2,1,-1,-3
39,88,76,38,4,120.0,2.0,105,20,9,5,9,6,7,4,1,-2
40,90,76,38,4,123.0,1.0,95,20,9,5,9,6,0,0,0,-2
41,93,74,37,2,126.0,1.0,105,21,7,4,7,5,3,2,-1,-3
42,96,76,38,4,129.0,2.0,95,21,9,5,9,6,-3,-2,1,-2
43,98,72,36,0,132.0,2.0,105,22,5,3,5,4,-2,-1,-1,-3
44,100,71,35,11,135.0,1.0,95,22,4,2,4,3,-1,-1,-1,-4
45,103,69,34,9,138.0,6.0,105,23,2,1,2,2,2,1,-1,-5
46,104,67,33,7,144.0,2.0,105,24,0,0,0,1,-2,-1,-1,-6
47,106,62,30,2,147.0,1.0,95,24,-5,-3,7,5,-5,-3,-1,-7
48,109,62,30,2,150.0,1.0,105,25,-5,-3,7,5,-5,-3,0,-7
49,112,64,31,4,153.0,2.0,95,25,-3,-2,9,6,-3,-2,1,-6
50,114,67,33,7,156.0,2.0,105,26,0,0,0,1,5,3,1,-5
51,116,62,30,2,159.0,1.0,95,26,-5,-3,7,5,-5,-3,-1,-6
52,119,69,34,9,162.0,3.0,105,27,2,1,2,2,2,1,1,-5
53,120,69,34,9,165.0,1.0,95,27,2,1,2,2,0,0,0,-5
54,123,67,33,7,168.0,2.0,105,28,0,0,0,1,1,1,-1,-6
55,125,62,30,2,171.0,1.0,95,28,-5,-3,7,5,-5,-3,-1,-7
56,128,62,30,2,174.0,1.0,105,29,-5,-3,7,5,-5,-3,0,-7
57,131,64,31,4,177.0,2.0,95,29,-3,-2,9,6,-3,-2,1,-6
58,133,71,35,11,180.0,3.0,105,30,4,2,4,3,9,5,1,-5
59,134,71,35,11,183.0,1.0,95,30,4,2,4,3,0,0,0,-5
60,137,76,38,4,186.0,2.0,105,31,9,5,9,6,9,5,1,-4
61,139,76,38,4,189.0,1.0,95,31,9,5,9,6,0,0,0,-4
62,142,74,37,2,192.0,1.0,105,32,7,4,7,5,3,2,-1,-5
63,145,76,38,4,195.0,2.0,95,32,9,5,9,6,-3,-2,1,-4
64,147,72,36,0,198.0,2.0,105,33,5,3,5,4,-2,-1,-1,-5
65,149,71,35,11,201.0,1.0,95,33,4,2,4,3,-1,-1,-1,-6
66,152,69,34,9,204.0,6.0,105,34,2,1,2,2,2,1,-1,-7
67,153,76,38,4,210.0,2.0,105,35,9,5,9,6,7,4,1,-6
68,155,76,38,4,213.0,1.0,95,35,9,5,9,6,0,0,0,-6
69,158,74,37,2,216.0,1.0,105,36,7,4,7,5,3,2,-1,-7
70,161,76,38,4,219.0,2.0,95,36,9,5,9,6,-3,-2,1,-6
71,163,72,36,0,222.0,2.0,105,37,5,3,5,4,-2,-1,-1,-7
72,165,71,35,11,225.0,1.0,95,37,4,2,4,3,-1,-1,-1,-8
73,168,69,34,9,228.0,6.0,105,38,2,1,2,2,2,1,-1,-9
