,index,midi_note_num,diatonic_note_num,chromatic_pitch_class,onset,duration,velocity,bar_count,relative_chromatic_pitch,relative_diatonic_pitch,chromatic_scale_degree,diatonic_scale_degree,chromatic_interval,diatonic_interval,parsons_code,parsons_cumsum
0,0,73,36,1,0.0,1.0,105,0,11,6,11,7,0,0,0,0
1,3,74,37,2,3.0,3.0,95,0,12,7,0,1,8,5,1,1
2,4,73,36,1,6.0,1.0,105,1,11,6,11,7,-1,-1,-1,0
3,7,64,31,4,9.0,3.0,95,1,2,1,2,2,-2,-1,-1,-1
4,8,69,34,9,12.0,3.0,105,2,7,4,7,5,5,3,1,0
5,9,69,34,9,15.0,3.0,95,2,7,4,7,5,0,0,0,0
6,10,69,34,9,18.0,1.0,105,3,7,4,7,5,0,0,0,0
7,13,69,34,9,21.0,1.0,95,3,7,4,7,5,-4,-2,0,0
8,16,73,36,1,24.0,1.0,105,4,11,6,11,7,9,5,1,1
9,19,74,37,2,27.0,1.0,95,4,12,7,0,1,8,5,1,2
10,22,76,38,4,30.0,1.0,105,5,14,8,2,2,-2,-1,1,3
11,25,71,35,11,33.0,1.0,95,5,9,5,9,6,-2,-1,-1,2
12,28,76,38,4,36.0,1.0,105,6,14,8,2,2,2,1,1,3
13,31,79,40,7,39.0,2.0,95,6,17,10,5,4,-4,-2,1,4
14,33,78,39,6,42.0,1.0,105,7,16,9,4,3,2,1,-1,3
15,36,76,38,4,45.0,1.0,95,7,14,8,2,2,2,1,-1,2
16,39,73,36,1,48.0,1.0,105,8,11,6,11,7,-1,-1,-1,1
17,42,74,37,2,51.0,3.0,95,8,12,7,0,1,8,5,1,2
18,43,73,36,1,54.0,1.0,105,9,11,6,11,7,-1,-1,-1,1
19,46,64,31,4,57.0,3.0,95,9,2,1,2,2,-2,-1,-1,0
20,47,69,34,9,60.0,3.0,105,10,7,4,7,5,5,3,1,1
21,48,69,34,9,63.0,3.0,95,10,7,4,7,5,0,0,0,1
22,49,69,34,9,66.0,1.0,105,11,7,4,7,5,0,0,0,1
23,52,69,34,9,69.0,1.0,95,11,7,4,7,5,-4,-2,0,1
24,55,73,36,1,72.0,1.0,105,12,11,6,11,7,9,5,1,2
25,58,74,37,2,75.0,1.0,95,12,12,7,0,1,8,5,1,3
26,61,76,38,4,78.0,1.0,105,13,14,8,2,2,-2,-1,1,4
27,64,71,35,11,81.0,1.0,95,13,9,5,9,6,-2,-1,-1,3
28,67,76,38,4,84.0,1.0,105,14,14,8,2,2,2,1,1,4
29,70,79,40,7,87.0,2.0,95,14,17,10,5,4,-4,-2,1,5
30,72,78,39,6,90.0,1.0,105,15,16,9,4,3,2,1,-1,4
31,75,76,38,4,93.0,1.0,95,15,14,8,2,2,2,1,-1,3
32,78,74,37,2,96.0,1.0,105,16,12,7,0,1,5,3,-1,2
33,81,81,41,9,99.0,3.0,95,16,19,11,7,5,3,2,1,3
34,82,81,41,9,102.0,1.0,105,17,19,11,7,5,0,0,0,3
35,85,81,41,9,105.0,1.0,95,17,19,11,7,5,3,2,0,3
36,88,69,34,9,108.0,1.0,105,18,7,4,7,5,-5,-3,-1,2
37,91,79,40,7,111.0,3.0,95,18,17,10,5,4,1,1,1,3
38,92,78,39,6,114.0,1.0,105,19,16,9,4,3,-1,-1,-1,2
39,95,76,38,4,117.0,1.0,95,19,14,8,2,2,2,1,-1,1
40,98,74,37,2,120.0,1.0,105,20,12,7,0,1,3,2,-1,0
41,101,81,41,9,123.0,3.0,95,20,19,11,7,5,3,2,1,1
42,102,81,41,9,126.0,1.0,105,21,19,11,7,5,0,0,0,1
43,105,81,41,9,129.0,1.0,95,21,19,11,7,5,3,2,0,1
44,108,79,40,7,132.0,1.0,105,22,17,10,5,4,-2,-1,-1,0
45,111,78,39,6,135.0,1.0,95,22,16,9,4,3,-1,-1,-1,-1
46,114,76,38,4,138.0,1.0,105,23,14,8,2,2,-2,-1,-1,-2
47,117,73,36,1,141.0,1.0,95,23,11,6,11,7,-1,-1,-1,-3
48,120,73,36,1,144.0,1.0,105,24,11,6,11,7,4,2,0,-3
49,123,74,37,2,147.0,3.0,95,24,12,7,0,1,8,5,1,-2
50,124,73,36,1,150.0,1.0,105,25,11,6,11,7,-1,-1,-1,-3
51,127,64,31,4,153.0,3.0,95,25,2,1,2,2,-2,-1,-1,-4
52,128,69,34,9,156.0,3.0,105,26,7,4,7,5,5,3,1,-3
53,129,69,34,9,159.0,3.0,95,26,7,4,7,5,0,0,0,-3
54,130,69,34,9,162.0,1.0,105,27,7,4,7,5,0,0,0,-3
55,133,69,34,9,165.0,1.0,95,27,7,4,7,5,-4,-2,0,-3
56,136,73,36,1,168.0,1.0,105,28,11,6,11,7,9,5,1,-2
57,139,74,37,2,171.0,1.0,95,28,12,7,0,1,8,5,1,-1
58,142,76,38,4,174.0,1.0,105,29,14,8,2,2,-2,-1,1,0
59,145,71,35,11,177.0,1.0,95,29,9,5,9,6,-2,-1,-1,-1
60,148,76,38,4,180.0,1.0,105,30,14,8,2,2,2,1,1,0
61,151,79,40,7,183.0,2.0,95,30,17,10,5,4,-4,-2,1,1
62,153,74,37,2,186.0,1.0,105,31,12,7,0,1,-2,-1,-1,0
63,156,81,41,9,189.0,3.0,95,31,19,11,7,5,3,2,1,1
64,157,81,41,9,192.0,1.0,105,32,19,11,7,5,0,0,0,1
65,160,81,41,9,195.0,1.0,95,32,19,11,7,5,3,2,0,1
66,163,69,34,9,198.0,1.0,105,33,7,4,7,5,-5,-3,-1,0
67,166,79,40,7,201.0,3.0,95,33,17,10,5,4,1,1,1,1
68,167,78,39,6,204.0,1.0,105,34,16,9,4,3,-1,-1,-1,0
69,170,76,38,4,207.0,1.0,95,34,14,8,2,2,2,1,-1,-1
70,173,74,37,2,210.0,1.0,105,35,12,7,0,1,3,2,-1,-2
71,176,81,41,9,213.0,3.0,95,35,19,11,7,5,3,2,1,-1
72,177,81,41,9,216.0,1.0,105,36,19,11,7,5,0,0,0,-1
73,180,81,41,9,219.0,1.0,95,36,19,11,7,5,3,2,0,-1
74,183,79,40,7,222.0,1.0,105,37,17,10,5,4,-2,-1,-1,-2
75,186,78,39,6,225.0,1.0,95,37,16,9,4,3,-1,-1,-1,-3
76,189,76,38,4,228.0,1.0,105,38,14,8,2,2,-2,-1,-1,-4
77,192,73,36,1,231.0,1.0,95,38,11,6,11,7,-1,-1,-1,-5
78,195,74,37,2,234.0,1.0,105,39,12,7,0,1,5,3,1,-4
79,197,71,35,11,237.0,1.0,95,39,9,5,9,6,-7,-4,-1,-5
80,200,69,34,9,240.0,1.0,105,40,7,4,7,5,-2,-1,-1,-6
81,203,79,40,7,243.0,1.0,95,40,17,10,5,4,1,1,1,-5
82,206,74,37,2,246.0,1.0,105,41,12,7,0,1,-2,-1,-1,-6
83,208,71,35,11,249.0,1.0,95,41,9,5,9,6,-7,-4,-1,-7
84,211,69,34,9,252.0,1.0,105,42,7,4,7,5,-2,-1,-1,-8
85,214,74,37,2,255.0,1.0,95,42,12,7,0,1,5,3,1,-7
86,217,74,37,2,258.0,1.0,105,43,12,7,0,1,5,3,0,-7
87,219,71,35,11,261.0,1.0,95,43,9,5,9,6,-7,-4,-1,-8
88,222,69,34,9,264.0,1.0,105,44,7,4,7,5,-2,-1,-1,-9
89,225,79,40,7,267.0,1.0,95,44,17,10,5,4,1,1,1,-8
90,228,78,39,6,270.0,1.0,105,45,16,9,4,3,2,1,-1,-9
91,231,83,42,11,273.0,1.0,95,45,21,12,9,6,2,1,1,-8
92,234,79,40,7,276.0,1.0,105,46,17,10,5,4,1,1,-1,-9
93,237,78,39,6,279.0,1.0,95,46,16,9,4,3,2,1,-1,-10
