,index,midi_note_num,diatonic_note_num,chromatic_pitch_class,onset,duration,velocity,bar_count,relative_chromatic_pitch,relative_diatonic_pitch,chromatic_scale_degree,diatonic_scale_degree,chromatic_interval,diatonic_interval,parsons_code,parsons_cumsum
0,2,76,38,4,2.0,2.0,105,0,9,5,9,6,0,0,0,0
1,5,69,34,9,6.0,1.0,95,0,2,1,2,2,-7,-4,-1,-1
2,9,74,37,2,10.0,2.0,105,1,7,4,7,5,-1,-1,1,0
3,12,67,33,7,14.0,1.0,95,1,0,0,0,1,-7,-4,-1,-1
4,16,74,37,2,18.0,2.0,105,2,7,4,7,5,0,0,1,0
5,19,66,32,6,22.0,1.0,95,2,-1,-1,11,7,-8,-5,-1,-1
6,23,72,36,0,26.0,2.0,105,3,5,3,5,4,-2,-1,1,0
7,26,65,32,5,30.0,1.0,95,3,-2,-1,10,7,-7,-4,-1,-1
8,30,76,38,4,34.0,2.0,105,4,9,5,9,6,4,2,1,0
9,33,69,34,9,38.0,1.0,95,4,2,1,2,2,-7,-4,-1,-1
10,37,74,37,2,42.0,2.0,105,5,7,4,7,5,-1,-1,1,0
11,40,67,33,7,46.0,1.0,95,5,0,0,0,1,-7,-4,-1,-1
12,44,74,37,2,50.0,2.0,105,6,7,4,7,5,0,0,1,0
13,47,67,33,7,54.0,1.0,95,6,0,0,0,1,-7,-4,-1,-1
14,51,72,36,0,58.0,1.0,105,7,5,3,5,4,-2,-1,1,0
15,55,69,34,9,62.0,1.0,95,7,2,1,2,2,2,1,-1,-1
16,58,76,38,4,66.0,2.0,105,8,9,5,9,6,9,5,1,0
17,61,69,34,9,70.0,1.0,95,8,2,1,2,2,-7,-4,-1,-1
18,65,74,37,2,74.0,2.0,105,9,7,4,7,5,-1,-1,1,0
19,68,67,33,7,78.0,1.0,95,9,0,0,0,1,-7,-4,-1,-1
20,72,74,37,2,82.0,2.0,105,10,7,4,7,5,0,0,1,0
21,75,66,32,6,86.0,1.0,95,10,-1,-1,11,7,-8,-5,-1,-1
22,79,72,36,0,90.0,2.0,105,11,5,3,5,4,-2,-1,1,0
23,82,65,32,5,94.0,1.0,95,11,-2,-1,10,7,-7,-4,-1,-1
24,86,76,38,4,98.0,2.0,105,12,9,5,9,6,4,2,1,0
25,89,69,34,9,102.0,1.0,95,12,2,1,2,2,-7,-4,-1,-1
26,93,74,37,2,106.0,2.0,105,13,7,4,7,5,-1,-1,1,0
27,96,67,33,7,110.0,1.0,95,13,0,0,0,1,-7,-4,-1,-1
28,100,74,37,2,114.0,2.0,105,14,7,4,7,5,0,0,1,0
29,103,67,33,7,118.0,1.0,95,14,0,0,0,1,-7,-4,-1,-1
30,107,72,36,0,122.0,1.0,105,15,5,3,5,4,-2,-1,1,0
31,111,69,34,9,126.0,1.0,95,15,2,1,2,2,2,1,-1,-1
32,114,74,37,2,130.0,2.0,105,16,7,4,7,5,7,4,1,0
33,117,67,33,7,134.0,1.0,95,16,0,0,0,1,-7,-4,-1,-1
34,121,74,37,2,138.0,2.0,105,17,7,4,7,5,0,0,1,0
35,124,65,32,5,142.0,1.0,95,17,-2,-1,10,7,-9,-5,-1,-1
36,128,72,36,0,146.0,2.0,105,18,5,3,5,4,-2,-1,1,0
37,131,65,32,5,150.0,1.0,95,18,-2,-1,10,7,-7,-4,-1,-1
38,135,76,38,4,154.0,1.0,105,19,9,5,9,6,4,2,1,0
39,139,74,37,2,158.0,1.0,95,19,7,4,7,5,-2,-1,-1,-1
40,143,76,38,4,162.0,2.0,105,20,9,5,9,6,2,1,1,0
41,146,69,34,9,166.0,1.0,95,20,2,1,2,2,-7,-4,-1,-1
42,150,74,37,2,170.0,2.0,105,21,7,4,7,5,-1,-1,1,0
43,153,67,33,7,174.0,1.0,95,21,0,0,0,1,-7,-4,-1,-1
44,157,74,37,2,178.0,2.0,105,22,7,4,7,5,0,0,1,0
45,160,67,33,7,182.0,1.0,95,22,0,0,0,1,-7,-4,-1,-1
46,164,72,36,0,186.0,1.0,105,23,5,3,5,4,-2,-1,1,0
47,168,69,34,9,190.0,1.0,95,23,2,1,2,2,2,1,-1,-1
48,171,74,37,2,194.0,2.0,105,24,7,4,7,5,7,4,1,0
49,174,67,33,7,198.0,1.0,95,24,0,0,0,1,-7,-4,-1,-1
50,178,74,37,2,202.0,2.0,105,25,7,4,7,5,0,0,1,0
51,181,65,32,5,206.0,1.0,95,25,-2,-1,10,7,-9,-5,-1,-1
52,185,72,36,0,210.0,2.0,105,26,5,3,5,4,-2,-1,1,0
53,188,65,32,5,214.0,1.0,95,26,-2,-1,10,7,-7,-4,-1,-1
54,192,76,38,4,218.0,1.0,105,27,9,5,9,6,4,2,1,0
55,196,74,37,2,222.0,1.0,95,27,7,4,7,5,-2,-1,-1,-1
56,200,76,38,4,226.0,2.0,105,28,9,5,9,6,2,1,1,0
57,203,69,34,9,230.0,1.0,95,28,2,1,2,2,-7,-4,-1,-1
58,207,74,37,2,234.0,2.0,105,29,7,4,7,5,-1,-1,1,0
59,210,67,33,7,238.0,1.0,95,29,0,0,0,1,-7,-4,-1,-1
60,214,74,37,2,242.0,2.0,105,30,7,4,7,5,0,0,1,0
61,217,67,33,7,246.0,1.0,95,30,0,0,0,1,-7,-4,-1,-1
62,221,72,36,0,250.0,1.0,105,31,5,3,5,4,-2,-1,1,0
63,225,69,34,9,254.0,1.0,95,31,2,1,2,2,2,1,-1,-1
64,228,75,38,3,258.0,2.0,105,32,8,5,8,6,8,5,1,0
65,231,67,33,7,262.0,1.0,95,32,0,0,0,1,-8,-5,-1,-1
66,235,75,38,3,266.0,2.0,105,33,8,5,8,6,0,0,1,0
67,238,68,33,8,270.0,1.0,95,33,1,0,1,1,-7,-5,-1,-1
68,242,74,37,2,274.0,2.0,105,34,7,4,7,5,-1,-1,1,0
69,245,67,33,7,278.0,1.0,95,34,0,0,0,1,-7,-4,-1,-1
70,249,74,37,2,282.0,2.0,105,35,7,4,7,5,0,0,1,0
71,252,66,32,6,286.0,1.0,95,35,-1,-1,11,7,-8,-5,-1,-1
72,256,76,38,4,290.0,2.0,105,36,9,5,9,6,2,1,1,0
73,259,69,34,9,294.0,1.0,95,36,2,1,2,2,-7,-4,-1,-1
74,263,74,37,2,298.0,2.0,105,37,7,4,7,5,-1,-1,1,0
75,266,67,33,7,302.0,1.0,95,37,0,0,0,1,-7,-4,-1,-1
76,270,74,37,2,306.0,2.0,105,38,7,4,7,5,0,0,1,0
77,273,66,32,6,310.0,1.0,95,38,-1,-1,11,7,-8,-5,-1,-1
78,277,72,36,0,314.0,1.0,105,39,5,3,5,4,-2,-1,1,0
79,281,69,34,9,318.0,1.0,95,39,2,1,2,2,2,1,-1,-1
80,284,75,38,3,322.0,2.0,105,40,8,5,8,6,8,5,1,0
81,287,67,33,7,326.0,1.0,95,40,0,0,0,1,-8,-5,-1,-1
82,291,75,38,3,330.0,2.0,105,41,8,5,8,6,0,0,1,0
83,294,68,33,8,334.0,1.0,95,41,1,0,1,1,-7,-5,-1,-1
84,298,74,37,2,338.0,2.0,105,42,7,4,7,5,-1,-1,1,0
85,301,67,33,7,342.0,1.0,95,42,0,0,0,1,-7,-4,-1,-1
86,305,74,37,2,346.0,2.0,105,43,7,4,7,5,0,0,1,0
87,308,66,32,6,350.0,1.0,95,43,-1,-1,11,7,-8,-5,-1,-1
88,312,76,38,4,354.0,2.0,105,44,9,5,9,6,2,1,1,0
89,315,69,34,9,358.0,1.0,95,44,2,1,2,2,-7,-4,-1,-1
90,319,74,37,2,362.0,2.0,105,45,7,4,7,5,-1,-1,1,0
91,322,67,33,7,366.0,1.0,95,45,0,0,0,1,-7,-4,-1,-1
92,326,74,37,2,370.0,2.0,105,46,7,4,7,5,0,0,1,0
93,329,66,32,6,374.0,1.0,95,46,-1,-1,11,7,-8,-5,-1,-1
94,333,72,36,0,378.0,1.0,105,47,5,3,5,4,-2,-1,1,0
95,337,69,34,9,382.0,1.0,95,47,2,1,2,2,2,1,-1,-1
