,index,midi_note_num,diatonic_note_num,chromatic_pitch_class,onset,duration,velocity,bar_count,relative_chromatic_pitch,relative_diatonic_pitch,chromatic_scale_degree,diatonic_scale_degree,chromatic_interval,diatonic_interval,parsons_code,parsons_cumsum
0,2,76,38,4,2.0,1.33,105,0,14,8,2,2,0,0,0,0
1,6,69,34,9,6.0,2.0,95,0,7,4,7,5,2,1,-1,-1
2,9,78,39,6,10.0,1.33,105,1,16,9,4,3,2,1,1,0
3,13,71,35,11,14.0,3.0,95,1,9,5,9,6,2,1,-1,-1
4,15,74,37,2,18.0,3.0,105,2,12,7,0,1,5,3,1,0
5,17,78,39,6,22.0,2.0,95,2,16,9,4,3,2,1,1,1
6,20,78,39,6,26.0,1.33,105,3,16,9,4,3,4,2,0,1
7,24,76,38,4,30.0,1.33,95,3,14,8,2,2,2,1,-1,0
8,28,62,30,2,34.0,2.0,105,4,0,0,0,1,-14,-8,-1,-1
9,31,69,34,9,38.0,1.33,95,4,7,4,7,5,3,2,1,0
10,34,67,33,7,42.0,1.33,105,5,5,3,5,4,5,3,-1,-1
11,38,69,34,9,46.0,1.33,95,5,7,4,7,5,-2,-1,1,0
12,41,69,34,9,50.0,1.33,105,6,7,4,7,5,7,4,0,0
13,45,69,34,9,54.0,1.33,95,6,7,4,7,5,-2,-1,0,0
14,49,64,31,4,58.0,1.33,105,7,2,1,2,2,-2,-1,-1,-1
15,53,62,30,2,62.0,2.0,95,7,0,0,0,1,-2,-1,-1,-2
16,56,76,38,4,66.0,1.33,105,8,14,8,2,2,2,1,1,-1
17,60,69,34,9,70.0,2.0,95,8,7,4,7,5,2,1,-1,-2
18,63,78,39,6,74.0,1.33,105,9,16,9,4,3,2,1,1,-1
19,67,71,35,11,78.0,3.0,95,9,9,5,9,6,2,1,-1,-2
20,69,74,37,2,82.0,3.0,105,10,12,7,0,1,5,3,1,-1
21,71,78,39,6,86.0,2.0,95,10,16,9,4,3,2,1,1,0
22,74,78,39,6,90.0,1.33,105,11,16,9,4,3,4,2,0,0
23,78,76,38,4,94.0,1.33,95,11,14,8,2,2,2,1,-1,-1
24,82,62,30,2,98.0,2.0,105,12,0,0,0,1,-14,-8,-1,-2
25,85,69,34,9,102.0,1.33,95,12,7,4,7,5,3,2,1,-1
26,88,67,33,7,106.0,1.33,105,13,5,3,5,4,5,3,-1,-2
27,92,69,34,9,110.0,1.33,95,13,7,4,7,5,-2,-1,1,-1
28,95,69,34,9,114.0,1.33,105,14,7,4,7,5,7,4,0,-1
29,99,69,34,9,118.0,1.33,95,14,7,4,7,5,-2,-1,0,-1
30,103,64,31,4,122.0,1.33,105,15,2,1,2,2,-2,-1,-1,-2
31,107,62,30,2,126.0,2.0,95,15,0,0,0,1,-2,-1,-1,-3
32,110,76,38,4,130.0,1.33,105,16,14,8,2,2,2,1,1,-2
33,114,69,34,9,134.0,2.0,95,16,7,4,7,5,5,3,-1,-3
34,117,73,36,1,138.0,1.33,105,17,11,6,11,7,-3,-2,1,-2
35,119,76,38,4,140.0,1.33,105,18,14,8,2,2,2,1,1,-1
36,123,69,34,9,144.0,2.0,95,18,7,4,7,5,5,3,-1,-2
37,126,73,36,1,148.0,1.33,105,19,11,6,11,7,-3,-2,1,-1
38,128,76,38,4,150.0,1.33,105,20,14,8,2,2,2,1,1,0
39,132,69,34,9,154.0,2.0,95,20,7,4,7,5,2,1,-1,-1
40,135,78,39,6,158.0,1.33,105,21,16,9,4,3,2,1,1,0
41,139,71,35,11,162.0,3.0,95,21,9,5,9,6,2,1,-1,-1
42,141,78,39,6,166.0,1.0,95,21,16,9,4,3,2,1,1,0
43,142,79,40,7,167.0,3.0,105,22,17,10,5,4,1,1,1,1
44,144,78,39,6,171.0,2.0,95,22,16,9,4,3,2,1,-1,0
45,147,61,29,1,175.0,1.33,105,23,-1,-1,11,7,-13,-8,-1,-1
46,151,61,29,1,179.0,1.33,95,23,-1,-1,11,7,-13,-8,0,-1
47,155,62,30,2,183.0,2.0,105,24,0,0,0,1,-2,-1,1,0
48,158,69,34,9,187.0,1.33,95,24,7,4,7,5,3,2,1,1
49,161,67,33,7,191.0,1.33,105,25,5,3,5,4,5,3,-1,0
50,165,69,34,9,195.0,1.33,95,25,7,4,7,5,-2,-1,1,1
51,168,69,34,9,199.0,1.33,105,26,7,4,7,5,7,4,0,1
52,172,69,34,9,203.0,1.33,95,26,7,4,7,5,-2,-1,0,1
53,176,64,31,4,207.0,1.33,105,27,2,1,2,2,-2,-1,-1,0
54,180,62,30,2,211.0,2.0,95,27,0,0,0,1,-2,-1,-1,-1
55,183,76,38,4,215.0,1.33,105,28,14,8,2,2,2,1,1,0
56,187,69,34,9,219.0,2.0,95,28,7,4,7,5,2,1,-1,-1
57,190,78,39,6,223.0,1.33,105,29,16,9,4,3,2,1,1,0
58,194,71,35,11,227.0,3.0,95,29,9,5,9,6,2,1,-1,-1
59,196,78,39,6,231.0,1.0,95,29,16,9,4,3,2,1,1,0
60,197,79,40,7,232.0,3.0,105,30,17,10,5,4,1,1,1,1
61,199,78,39,6,236.0,2.0,95,30,16,9,4,3,2,1,-1,0
62,202,61,29,1,240.0,1.33,105,31,-1,-1,11,7,-13,-8,-1,-1
63,206,61,29,1,244.0,1.33,95,31,-1,-1,11,7,-13,-8,0,-1
64,210,62,30,2,248.0,2.0,105,32,0,0,0,1,-2,-1,1,0
65,213,69,34,9,252.0,1.33,95,32,7,4,7,5,3,2,1,1
66,216,67,33,7,256.0,1.33,105,33,5,3,5,4,5,3,-1,0
67,220,69,34,9,260.0,1.33,95,33,7,4,7,5,-2,-1,1,1
68,223,69,34,9,264.0,1.33,105,34,7,4,7,5,7,4,0,1
69,227,69,34,9,268.0,1.33,95,34,7,4,7,5,-2,-1,0,1
70,231,64,31,4,272.0,1.33,105,35,2,1,2,2,-2,-1,-1,0
71,235,62,30,2,276.0,2.0,95,35,0,0,0,1,-2,-1,-1,-1
