,index,midi_note_num,diatonic_note_num,chromatic_pitch_class,onset,duration,velocity,bar_count,relative_chromatic_pitch,relative_diatonic_pitch,chromatic_scale_degree,diatonic_scale_degree,chromatic_interval,diatonic_interval,parsons_code,parsons_cumsum
0,0,66,32,6,0.0,1.0,105,0,4,2,4,3,0,0,0,0
1,3,64,31,4,3.0,1.0,95,0,2,1,2,2,2,1,-1,-1
2,6,69,34,9,6.0,2.0,105,1,7,4,7,5,2,1,1,0
3,8,72,36,0,9.0,1.0,95,1,10,6,10,7,-2,-1,1,1
4,11,69,34,9,12.0,1.0,105,2,7,4,7,5,2,1,-1,0
5,14,71,35,11,15.0,1.0,95,2,9,5,9,6,2,1,1,1
6,17,66,32,6,18.0,1.0,105,3,4,2,4,3,-1,-1,-1,0
7,20,67,33,7,21.0,1.0,95,3,5,3,5,4,1,1,1,1
8,23,66,32,6,24.0,1.0,105,4,4,2,4,3,2,1,-1,0
9,26,64,31,4,27.0,1.0,95,4,2,1,2,2,2,1,-1,-1
10,29,69,34,9,30.0,1.0,105,5,7,4,7,5,2,1,1,0
11,32,72,36,0,33.0,1.0,95,5,10,6,10,7,1,1,1,1
12,35,66,32,6,36.0,1.0,105,6,4,2,4,3,-1,-1,-1,0
13,38,67,33,7,39.0,1.0,95,6,5,3,5,4,1,1,1,1
14,41,62,30,2,42.0,1.0,105,7,0,0,0,1,-7,-4,-1,0
15,44,62,30,2,45.0,2.0,95,7,0,0,0,1,0,0,0,0
16,46,64,31,4,48.0,1.0,95,7,2,1,2,2,-2,-1,1,1
17,49,66,32,6,51.0,1.0,95,7,4,2,4,3,2,1,1,2
18,51,69,34,9,53.0,2.0,105,8,7,4,7,5,2,1,1,3
19,53,72,36,0,56.0,1.0,95,8,10,6,10,7,-2,-1,1,4
20,56,69,34,9,59.0,1.0,105,9,7,4,7,5,2,1,-1,3
21,59,71,35,11,62.0,1.0,95,9,9,5,9,6,2,1,1,4
22,62,66,32,6,65.0,1.0,105,10,4,2,4,3,-1,-1,-1,3
23,65,67,33,7,68.0,1.0,95,10,5,3,5,4,1,1,1,4
24,68,66,32,6,71.0,1.0,105,11,4,2,4,3,2,1,-1,3
25,71,64,31,4,74.0,1.0,95,11,2,1,2,2,2,1,-1,2
26,74,69,34,9,77.0,1.0,105,12,7,4,7,5,2,1,1,3
27,77,72,36,0,80.0,1.0,95,12,10,6,10,7,1,1,1,4
28,80,66,32,6,83.0,1.0,105,13,4,2,4,3,-1,-1,-1,3
29,83,67,33,7,86.0,1.0,95,13,5,3,5,4,1,1,1,4
30,86,62,30,2,89.0,1.0,105,14,0,0,0,1,-7,-4,-1,3
31,89,62,30,2,92.0,2.0,95,14,0,0,0,1,0,0,0,3
32,93,76,38,4,98.0,1.0,95,14,14,8,2,2,-2,-1,1,4
33,95,76,38,4,100.0,2.0,105,15,14,8,2,2,2,1,0,4
34,97,72,36,0,103.0,1.0,95,15,10,6,10,7,-2,-1,-1,3
35,100,69,34,9,106.0,1.0,105,16,7,4,7,5,2,1,-1,2
36,103,71,35,11,109.0,1.0,95,16,9,5,9,6,2,1,1,3
37,106,66,32,6,112.0,1.0,105,17,4,2,4,3,-1,-1,-1,2
38,109,67,33,7,115.0,1.0,95,17,5,3,5,4,1,1,1,3
39,112,74,37,2,118.0,2.0,105,18,12,7,0,1,12,7,1,4
40,114,78,39,6,121.0,1.0,95,18,16,9,4,3,2,1,1,5
41,117,76,38,4,124.0,2.0,105,19,14,8,2,2,2,1,-1,4
42,119,72,36,0,127.0,1.0,95,19,10,6,10,7,-2,-1,-1,3
43,122,66,32,6,130.0,1.0,105,20,4,2,4,3,-1,-1,-1,2
44,125,67,33,7,133.0,1.0,95,20,5,3,5,4,1,1,1,3
45,128,62,30,2,136.0,1.0,105,21,0,0,0,1,-7,-4,-1,2
46,131,62,30,2,139.0,1.0,95,21,0,0,0,1,0,0,0,2
47,136,74,37,2,142.0,2.0,105,22,12,7,0,1,12,7,1,3
48,138,78,39,6,145.0,1.0,95,22,16,9,4,3,2,1,1,4
49,141,76,38,4,148.0,2.0,105,23,14,8,2,2,2,1,-1,3
50,143,72,36,0,151.0,1.0,95,23,10,6,10,7,-2,-1,-1,2
51,146,69,34,9,154.0,1.0,105,24,7,4,7,5,2,1,-1,1
52,149,71,35,11,157.0,1.0,95,24,9,5,9,6,2,1,1,2
53,152,66,32,6,160.0,1.0,105,25,4,2,4,3,-1,-1,-1,1
54,155,67,33,7,163.0,1.0,95,25,5,3,5,4,1,1,1,2
55,158,74,37,2,166.0,2.0,105,26,12,7,0,1,12,7,1,3
56,160,78,39,6,169.0,1.0,95,26,16,9,4,3,2,1,1,4
57,163,76,38,4,172.0,2.0,105,27,14,8,2,2,2,1,-1,3
58,165,72,36,0,175.0,1.0,95,27,10,6,10,7,-2,-1,-1,2
59,168,66,32,6,178.0,1.0,105,28,4,2,4,3,-1,-1,-1,1
60,171,67,33,7,181.0,1.0,95,28,5,3,5,4,1,1,1,2
61,174,62,30,2,184.0,1.0,105,29,0,0,0,1,-7,-4,-1,1
62,177,62,30,2,187.0,1.0,95,29,0,0,0,1,0,0,0,1
63,182,62,30,2,190.0,1.0,105,30,0,0,0,1,0,0,0,1
64,185,72,36,0,193.0,3.0,95,30,10,6,10,7,10,6,1,2
65,186,69,34,9,196.0,2.0,105,31,7,4,7,5,-3,-2,-1,1
66,188,72,36,0,199.0,1.0,95,31,10,6,10,7,-2,-1,1,2
67,191,69,34,9,202.0,1.0,105,32,7,4,7,5,2,1,-1,1
68,194,74,37,2,205.0,1.0,95,32,12,7,0,1,1,1,1,2
69,197,78,39,6,208.0,1.0,105,33,16,9,4,3,4,2,1,3
70,200,72,36,0,211.0,1.0,95,33,10,6,10,7,-2,-1,-1,2
71,203,62,30,2,214.0,1.0,105,34,0,0,0,1,-4,-2,-1,1
72,206,72,36,0,217.0,1.0,95,34,10,6,10,7,3,2,1,2
73,209,69,34,9,220.0,1.0,105,35,7,4,7,5,-3,-2,-1,1
74,212,72,36,0,223.0,1.0,95,35,10,6,10,7,1,1,1,2
75,215,66,32,6,226.0,1.0,105,36,4,2,4,3,-1,-1,-1,1
76,218,67,33,7,229.0,1.0,95,36,5,3,5,4,1,1,1,2
77,221,62,30,2,232.0,1.0,105,37,0,0,0,1,-7,-4,-1,1
78,224,62,30,2,235.0,3.0,95,37,0,0,0,1,0,0,0,1
79,225,62,30,2,238.0,1.0,105,38,0,0,0,1,0,0,0,1
80,228,72,36,0,241.0,3.0,95,38,10,6,10,7,10,6,1,2
81,229,69,34,9,244.0,2.0,105,39,7,4,7,5,-3,-2,-1,1
82,231,72,36,0,247.0,1.0,95,39,10,6,10,7,-2,-1,1,2
83,234,69,34,9,250.0,1.0,105,40,7,4,7,5,2,1,-1,1
84,237,74,37,2,253.0,1.0,95,40,12,7,0,1,1,1,1,2
85,240,78,39,6,256.0,1.0,105,41,16,9,4,3,4,2,1,3
86,243,72,36,0,259.0,1.0,95,41,10,6,10,7,-2,-1,-1,2
87,246,62,30,2,262.0,1.0,105,42,0,0,0,1,-4,-2,-1,1
88,249,72,36,0,265.0,1.0,95,42,10,6,10,7,3,2,1,2
89,252,69,34,9,268.0,1.0,105,43,7,4,7,5,-3,-2,-1,1
90,255,72,36,0,271.0,1.0,95,43,10,6,10,7,1,1,1,2
91,258,66,32,6,274.0,1.0,105,44,4,2,4,3,-1,-1,-1,1
92,261,67,33,7,277.0,1.0,95,44,5,3,5,4,1,1,1,2
93,264,62,30,2,280.0,1.0,105,45,0,0,0,1,-7,-4,-1,1
94,267,62,30,2,283.0,2.0,95,45,0,0,0,1,0,0,0,1
95,271,74,37,2,289.0,1.0,95,45,12,7,0,1,-4,-2,1,2
96,273,81,41,9,291.0,1.0,105,46,19,11,7,5,7,4,1,3
97,276,78,39,6,294.0,1.0,95,46,16,9,4,3,4,2,-1,2
98,279,73,36,1,297.0,2.0,105,47,11,6,11,7,-1,-1,-1,1
99,281,76,38,4,300.0,1.0,95,47,14,8,2,2,2,1,1,2
100,284,78,39,6,303.0,1.0,105,48,16,9,4,3,9,5,1,3
101,287,79,40,7,306.0,1.0,95,48,17,10,5,4,10,6,1,4
102,290,74,37,2,309.0,2.0,105,49,12,7,0,1,-2,-1,-1,3
103,292,78,39,6,312.0,1.0,95,49,16,9,4,3,2,1,1,4
104,295,81,41,9,315.0,1.0,105,50,19,11,7,5,7,4,1,5
105,298,78,39,6,318.0,1.0,95,50,16,9,4,3,4,2,-1,4
106,301,78,39,6,321.0,1.0,105,51,16,9,4,3,4,2,0,4
107,304,79,40,7,324.0,1.0,95,51,17,10,5,4,1,1,1,5
108,307,74,37,2,327.0,1.0,105,52,12,7,0,1,1,1,-1,4
109,310,74,37,2,330.0,2.0,95,52,12,7,0,1,-2,-1,0,4
110,312,64,31,4,333.0,1.0,95,52,2,1,2,2,2,1,-1,3
111,315,69,34,9,338.0,2.0,105,53,7,4,7,5,-3,-2,1,4
112,317,72,36,0,341.0,1.0,95,53,10,6,10,7,-2,-1,1,5
113,320,69,34,9,344.0,1.0,105,54,7,4,7,5,2,1,-1,4
114,323,74,37,2,347.0,1.0,95,54,12,7,0,1,1,1,1,5
115,326,78,39,6,350.0,1.0,105,55,16,9,4,3,4,2,1,6
116,329,72,36,0,353.0,1.0,95,55,10,6,10,7,-2,-1,-1,5
117,332,62,30,2,356.0,1.0,105,56,0,0,0,1,-4,-2,-1,4
118,335,72,36,0,359.0,1.0,95,56,10,6,10,7,3,2,1,5
119,338,69,34,9,362.0,1.0,105,57,7,4,7,5,-3,-2,-1,4
120,341,72,36,0,365.0,1.0,95,57,10,6,10,7,1,1,1,5
121,344,66,32,6,368.0,1.0,105,58,4,2,4,3,-1,-1,-1,4
122,347,67,33,7,371.0,1.0,95,58,5,3,5,4,1,1,1,5
123,350,74,37,2,374.0,2.0,105,59,12,7,0,1,5,3,1,6
124,352,78,39,6,377.0,1.0,95,59,16,9,4,3,2,1,1,7
125,355,81,41,9,380.0,1.0,105,60,19,11,7,5,7,4,1,8
126,358,78,39,6,383.0,1.0,95,60,16,9,4,3,4,2,-1,7
127,361,73,36,1,386.0,2.0,105,61,11,6,11,7,-1,-1,-1,6
128,363,76,38,4,389.0,1.0,95,61,14,8,2,2,2,1,1,7
129,366,78,39,6,392.0,1.0,105,62,16,9,4,3,9,5,1,8
130,369,79,40,7,395.0,1.0,95,62,17,10,5,4,10,6,1,9
131,372,74,37,2,398.0,2.0,105,63,12,7,0,1,-2,-1,-1,8
132,374,78,39,6,401.0,1.0,95,63,16,9,4,3,2,1,1,9
133,377,81,41,9,404.0,1.0,105,64,19,11,7,5,7,4,1,10
134,380,78,39,6,407.0,1.0,95,64,16,9,4,3,4,2,-1,9
135,383,78,39,6,410.0,1.0,105,65,16,9,4,3,4,2,0,9
136,386,79,40,7,413.0,1.0,95,65,17,10,5,4,1,1,1,10
137,389,74,37,2,416.0,1.0,105,66,12,7,0,1,1,1,-1,9
138,392,74,37,2,419.0,2.0,95,66,12,7,0,1,-2,-1,0,9
139,394,76,38,4,422.0,1.0,95,66,14,8,2,2,-2,-1,1,10
140,397,74,37,2,425.0,1.0,95,66,12,7,0,1,-2,-1,-1,9
141,399,74,37,2,427.0,1.0,105,67,12,7,0,1,1,1,0,9
142,402,72,36,0,430.0,1.0,95,67,10,6,10,7,-2,-1,-1,8
143,405,69,34,9,433.0,1.0,105,68,7,4,7,5,2,1,-1,7
144,408,71,35,11,436.0,1.0,95,68,9,5,9,6,2,1,1,8
145,411,66,32,6,439.0,1.0,105,69,4,2,4,3,-1,-1,-1,7
146,414,67,33,7,442.0,1.0,95,69,5,3,5,4,1,1,1,8
147,417,78,39,6,445.0,1.0,105,70,16,9,4,3,16,9,1,9
148,420,76,38,4,448.0,1.0,95,70,14,8,2,2,2,1,-1,8
149,423,74,37,2,451.0,1.0,105,71,12,7,0,1,1,1,-1,7
150,426,72,36,0,454.0,1.0,95,71,10,6,10,7,-2,-1,-1,6
151,429,66,32,6,457.0,1.0,105,72,4,2,4,3,-1,-1,-1,5
152,432,67,33,7,460.0,1.0,95,72,5,3,5,4,1,1,1,6
153,435,62,30,2,463.0,1.0,105,73,0,0,0,1,-7,-4,-1,5
154,438,62,30,2,466.0,2.0,95,73,0,0,0,1,0,0,0,5
155,440,78,39,6,469.0,1.0,105,74,16,9,4,3,2,1,1,6
156,443,76,38,4,472.0,1.0,95,74,14,8,2,2,-2,-1,-1,5
157,446,74,37,2,475.0,1.0,105,75,12,7,0,1,-2,-1,-1,4
158,449,72,36,0,478.0,1.0,95,75,10,6,10,7,-2,-1,-1,3
159,452,69,34,9,481.0,1.0,105,76,7,4,7,5,2,1,-1,2
160,455,71,35,11,484.0,1.0,95,76,9,5,9,6,2,1,1,3
161,458,66,32,6,487.0,1.0,105,77,4,2,4,3,-1,-1,-1,2
162,461,67,33,7,490.0,1.0,95,77,5,3,5,4,1,1,1,3
163,464,78,39,6,493.0,0.5,105,78,16,9,4,3,16,9,1,4
164,468,79,40,7,496.0,1.0,95,78,17,10,5,4,1,1,1,5
165,471,74,37,2,499.0,1.0,105,79,12,7,0,1,-2,-1,-1,4
166,474,73,36,1,502.0,1.0,95,79,11,6,11,7,-1,-1,-1,3
167,477,66,32,6,505.0,1.0,105,80,4,2,4,3,-1,-1,-1,2
168,480,67,33,7,508.0,1.0,95,80,5,3,5,4,1,1,1,3
169,483,62,30,2,511.0,1.0,105,81,0,0,0,1,-7,-4,-1,2
170,486,62,30,2,514.0,2.0,95,81,0,0,0,1,0,0,0,2
