,index,midi_note_num,diatonic_note_num,chromatic_pitch_class,onset,duration,velocity,bar_count,relative_chromatic_pitch,relative_diatonic_pitch,chromatic_scale_degree,diatonic_scale_degree,chromatic_interval,diatonic_interval,parsons_code,parsons_cumsum
0,3,76,38,4,3.0,2.0,105,0,16,9,4,3,0,0,0,0
1,5,67,33,7,7.0,1.0,95,0,7,4,7,5,0,0,-1,-1
2,9,77,39,5,11.0,2.0,105,1,17,10,5,4,1,1,1,0
3,11,69,34,9,15.0,1.0,95,1,9,5,9,6,0,0,-1,-1
4,15,83,42,11,19.0,2.0,105,2,23,13,11,7,2,1,1,0
5,17,71,35,11,23.0,1.0,95,2,11,6,11,7,0,0,-1,-1
6,21,76,38,4,27.0,1.0,105,3,16,9,4,3,-1,-1,1,0
7,25,79,40,7,31.0,1.0,95,3,19,11,7,5,1,1,1,1
8,29,76,38,4,35.0,2.0,105,4,16,9,4,3,2,1,-1,0
9,31,67,33,7,39.0,1.0,95,4,7,4,7,5,0,0,-1,-1
10,35,77,39,5,43.0,2.0,105,5,17,10,5,4,1,1,1,0
11,37,69,34,9,47.0,1.0,95,5,9,5,9,6,0,0,-1,-1
12,41,72,36,0,51.0,1.0,105,6,12,7,0,1,-2,-1,1,0
13,44,67,33,7,55.0,1.0,95,6,7,4,7,5,-9,-5,-1,-1
14,47,72,36,0,59.0,2.0,105,7,12,7,0,1,-2,-1,1,0
15,49,72,36,0,63.0,1.0,95,7,12,7,0,1,0,0,0,0
16,53,76,38,4,67.0,2.0,105,8,16,9,4,3,2,1,1,1
17,55,67,33,7,71.0,1.0,95,8,7,4,7,5,0,0,-1,0
18,59,77,39,5,75.0,2.0,105,9,17,10,5,4,1,1,1,1
19,61,69,34,9,79.0,1.0,95,9,9,5,9,6,0,0,-1,0
20,65,83,42,11,83.0,2.0,105,10,23,13,11,7,2,1,1,1
21,67,71,35,11,87.0,1.0,95,10,11,6,11,7,0,0,-1,0
22,71,76,38,4,91.0,1.0,105,11,16,9,4,3,-1,-1,1,1
23,75,79,40,7,95.0,1.0,95,11,19,11,7,5,1,1,1,2
24,79,76,38,4,99.0,2.0,105,12,16,9,4,3,2,1,-1,1
25,81,67,33,7,103.0,1.0,95,12,7,4,7,5,0,0,-1,0
26,85,77,39,5,107.0,2.0,105,13,17,10,5,4,1,1,1,1
27,87,69,34,9,111.0,1.0,95,13,9,5,9,6,0,0,-1,0
28,91,72,36,0,115.0,1.0,105,14,12,7,0,1,-2,-1,1,1
29,94,67,33,7,119.0,1.0,95,14,7,4,7,5,-9,-5,-1,0
30,97,72,36,0,123.0,2.0,105,15,12,7,0,1,-2,-1,1,1
31,99,72,36,0,127.0,3.0,95,15,12,7,0,1,0,0,0,1
32,101,69,34,9,131.0,1.0,105,16,9,5,9,6,5,3,-1,0
33,105,68,33,8,135.0,1.0,95,16,8,4,8,5,2,1,-1,-1
34,109,72,36,0,139.0,2.0,105,17,12,7,0,1,0,0,1,0
35,111,69,34,9,143.0,2.0,95,17,9,5,9,6,0,0,-1,-1
36,113,76,38,4,147.0,1.0,105,18,16,9,4,3,0,0,1,0
37,116,72,36,0,151.0,1.0,95,18,12,7,0,1,0,0,-1,-1
38,119,69,34,9,155.0,2.0,105,19,9,5,9,6,0,0,-1,-2
39,121,68,33,8,159.0,2.0,95,19,8,4,8,5,0,0,-1,-3
40,123,69,34,9,163.0,1.0,105,20,9,5,9,6,5,3,1,-2
41,127,68,33,8,167.0,1.0,95,20,8,4,8,5,2,1,-1,-3
42,131,72,36,0,171.0,2.0,105,21,12,7,0,1,0,0,1,-2
43,133,69,34,9,175.0,2.0,95,21,9,5,9,6,0,0,-1,-3
44,135,81,41,9,179.0,1.0,105,22,21,12,9,6,0,0,1,-2
45,139,76,38,4,183.0,3.0,95,22,16,9,4,3,-1,-1,-1,-3
46,141,69,34,9,187.0,2.0,105,23,9,5,9,6,1,1,-1,-4
47,143,69,34,9,191.0,1.0,95,23,9,5,9,6,0,0,0,-4
48,147,76,38,4,195.0,2.0,105,24,16,9,4,3,2,1,1,-3
49,149,67,33,7,199.0,1.0,95,24,7,4,7,5,0,0,-1,-4
50,153,77,39,5,203.0,2.0,105,25,17,10,5,4,1,1,1,-3
51,155,69,34,9,207.0,1.0,95,25,9,5,9,6,0,0,-1,-4
52,159,83,42,11,211.0,2.0,105,26,23,13,11,7,2,1,1,-3
53,161,71,35,11,215.0,1.0,95,26,11,6,11,7,0,0,-1,-4
54,165,76,38,4,219.0,1.0,105,27,16,9,4,3,-1,-1,1,-3
55,169,79,40,7,223.0,1.0,95,27,19,11,7,5,1,1,1,-2
56,173,76,38,4,227.0,2.0,105,28,16,9,4,3,2,1,-1,-3
57,175,67,33,7,231.0,1.0,95,28,7,4,7,5,0,0,-1,-4
58,179,77,39,5,235.0,2.0,105,29,17,10,5,4,1,1,1,-3
59,181,69,34,9,239.0,1.0,95,29,9,5,9,6,0,0,-1,-4
60,185,72,36,0,243.0,1.0,105,30,12,7,0,1,-2,-1,1,-3
61,188,67,33,7,247.0,1.0,95,30,7,4,7,5,-9,-5,-1,-4
62,191,72,36,0,251.0,2.0,105,31,12,7,0,1,-2,-1,1,-3
63,193,72,36,0,255.0,4.0,95,31,12,7,0,1,0,0,0,-3
64,194,81,41,9,259.0,4.0,105,32,21,12,9,6,9,5,1,-2
65,195,86,44,2,263.0,3.0,95,32,26,15,2,2,5,3,1,-1
66,197,84,43,0,267.0,2.0,105,33,24,14,0,1,3,2,-1,-2
67,199,82,42,10,271.0,1.0,95,33,22,13,10,7,0,0,-1,-3
68,202,76,38,4,275.0,4.0,105,34,16,9,4,3,-6,-4,-1,-4
69,203,81,41,9,279.0,3.0,95,34,21,12,9,6,5,3,1,-3
70,205,79,40,7,283.0,2.0,105,35,19,11,7,5,3,2,-1,-4
71,207,77,39,5,287.0,1.0,95,35,17,10,5,4,0,0,-1,-5
72,211,81,41,9,291.0,4.0,105,36,21,12,9,6,16,9,1,-4
73,212,84,43,0,295.0,3.0,95,36,24,14,0,1,3,2,1,-3
74,214,88,45,4,299.0,2.0,105,37,28,16,4,3,7,4,1,-2
75,216,86,44,2,303.0,1.0,95,37,26,15,2,2,0,0,-1,-3
76,220,77,39,5,307.0,1.0,105,38,17,10,5,4,1,1,-1,-4
77,224,84,43,0,311.0,3.0,95,38,24,14,0,1,3,2,1,-3
78,226,77,39,5,315.0,2.0,105,39,17,10,5,4,1,1,-1,-4
79,228,77,39,5,319.0,1.0,95,39,17,10,5,4,0,0,0,-4
