,index,midi_note_num,diatonic_note_num,chromatic_pitch_class,onset,duration,velocity,bar_count,relative_chromatic_pitch,relative_diatonic_pitch,chromatic_scale_degree,diatonic_scale_degree,chromatic_interval,diatonic_interval,parsons_code,parsons_cumsum
0,0,74,37,2,0.0,1.0,105,0,12,7,0,1,0,0,0,0
1,3,66,32,6,3.0,1.0,95,0,4,2,4,3,0,0,-1,-1
2,6,66,32,6,6.0,1.0,105,1,4,2,4,3,0,0,0,-1
3,9,66,32,6,9.0,2.0,95,1,4,2,4,3,0,0,0,-1
4,11,71,35,11,12.0,1.0,105,2,9,5,9,6,-3,-2,1,0
5,14,64,31,4,15.0,1.0,95,2,2,1,2,2,0,0,-1,-1
6,17,64,31,4,18.0,1.0,105,3,2,1,2,2,0,0,0,-1
7,20,64,31,4,21.0,1.0,95,3,2,1,2,2,0,0,0,-1
8,23,74,37,2,24.0,1.0,105,4,12,7,0,1,5,3,1,0
9,26,66,32,6,27.0,1.0,95,4,4,2,4,3,0,0,-1,-1
10,29,62,30,2,30.0,1.0,105,5,0,0,0,1,-4,-2,-1,-2
11,32,74,37,2,33.0,2.0,95,5,12,7,0,1,5,3,1,-1
12,34,78,39,6,36.0,1.0,105,6,16,9,4,3,2,1,1,0
13,37,73,36,1,39.0,1.0,95,6,11,6,11,7,-1,-1,-1,-1
14,40,73,36,1,42.0,1.0,105,7,11,6,11,7,2,1,0,-1
15,43,69,34,9,45.0,1.0,95,7,7,4,7,5,0,0,-1,-2
16,46,74,37,2,48.0,1.0,105,8,12,7,0,1,1,1,1,-1
17,49,66,32,6,51.0,1.0,95,8,4,2,4,3,0,0,-1,-2
18,52,66,32,6,54.0,1.0,105,9,4,2,4,3,0,0,0,-2
19,55,66,32,6,57.0,2.0,95,9,4,2,4,3,0,0,0,-2
20,57,71,35,11,60.0,1.0,105,10,9,5,9,6,-3,-2,1,-1
21,60,64,31,4,63.0,1.0,95,10,2,1,2,2,0,0,-1,-2
22,63,64,31,4,66.0,1.0,105,11,2,1,2,2,0,0,0,-2
23,66,64,31,4,69.0,1.0,95,11,2,1,2,2,0,0,0,-2
24,69,74,37,2,72.0,1.0,105,12,12,7,0,1,5,3,1,-1
25,72,66,32,6,75.0,1.0,95,12,4,2,4,3,0,0,-1,-2
26,75,62,30,2,78.0,1.0,105,13,0,0,0,1,-4,-2,-1,-3
27,78,74,37,2,81.0,2.0,95,13,12,7,0,1,5,3,1,-2
28,80,78,39,6,84.0,1.0,105,14,16,9,4,3,2,1,1,-1
29,83,73,36,1,87.0,1.0,95,14,11,6,11,7,-1,-1,-1,-2
30,86,73,36,1,90.0,1.0,105,15,11,6,11,7,2,1,0,-2
31,89,69,34,9,93.0,2.0,95,15,7,4,7,5,0,0,-1,-3
32,91,73,36,1,96.0,1.0,105,16,11,6,11,7,-1,-1,1,-2
33,94,73,36,1,99.0,1.0,95,16,11,6,11,7,-3,-2,0,-2
34,97,73,36,1,102.0,1.0,105,17,11,6,11,7,-3,-2,0,-2
35,100,76,38,4,105.0,1.0,95,17,14,8,2,2,0,0,1,-1
36,103,74,37,2,108.0,1.0,105,18,12,7,0,1,1,1,-1,-2
37,106,74,37,2,111.0,1.0,95,18,12,7,0,1,-4,-2,0,-2
38,109,74,37,2,114.0,1.0,105,19,12,7,0,1,-4,-2,0,-2
39,112,78,39,6,117.0,1.0,95,19,16,9,4,3,0,0,1,-1
40,115,73,36,1,120.0,1.0,105,20,11,6,11,7,-1,-1,-1,-2
41,118,73,36,1,123.0,1.0,95,20,11,6,11,7,-3,-2,0,-2
42,121,73,36,1,126.0,1.0,105,21,11,6,11,7,-3,-2,0,-2
43,124,76,38,4,129.0,2.0,95,21,14,8,2,2,0,0,1,-1
44,126,78,39,6,132.0,1.0,105,22,16,9,4,3,-3,-2,1,0
45,129,73,36,1,135.0,1.0,95,22,11,6,11,7,-1,-1,-1,-1
46,132,73,36,1,138.0,1.0,105,23,11,6,11,7,2,1,0,-1
47,135,69,34,9,141.0,2.0,95,23,7,4,7,5,0,0,-1,-2
48,137,73,36,1,144.0,1.0,105,24,11,6,11,7,-1,-1,1,-1
49,140,73,36,1,147.0,1.0,95,24,11,6,11,7,-3,-2,0,-1
50,143,73,36,1,150.0,1.0,105,25,11,6,11,7,-3,-2,0,-1
51,146,76,38,4,153.0,1.0,95,25,14,8,2,2,0,0,1,0
52,149,74,37,2,156.0,1.0,105,26,12,7,0,1,1,1,-1,-1
53,152,74,37,2,159.0,1.0,95,26,12,7,0,1,-4,-2,0,-1
54,155,74,37,2,162.0,1.0,105,27,12,7,0,1,-4,-2,0,-1
55,158,78,39,6,165.0,1.0,95,27,16,9,4,3,0,0,1,0
56,161,73,36,1,168.0,1.0,105,28,11,6,11,7,-1,-1,-1,-1
57,164,73,36,1,171.0,1.0,95,28,11,6,11,7,-3,-2,0,-1
58,167,73,36,1,174.0,1.0,105,29,11,6,11,7,-3,-2,0,-1
59,170,76,38,4,177.0,2.0,95,29,14,8,2,2,0,0,1,0
60,172,78,39,6,180.0,1.0,105,30,16,9,4,3,-3,-2,1,1
61,175,73,36,1,183.0,1.0,95,30,11,6,11,7,-1,-1,-1,0
62,178,73,36,1,186.0,1.0,105,31,11,6,11,7,2,1,0,0
63,181,69,34,9,189.0,2.0,95,31,7,4,7,5,0,0,-1,-1
64,183,73,36,1,192.0,1.0,105,32,11,6,11,7,-1,-1,1,0
65,186,71,35,11,195.0,1.0,95,32,9,5,9,6,2,1,-1,-1
66,189,74,37,2,198.0,1.0,105,33,12,7,0,1,8,5,1,0
67,192,62,30,2,201.0,2.0,95,33,0,0,0,1,-4,-2,-1,-1
68,194,73,36,1,204.0,1.0,105,34,11,6,11,7,-1,-1,1,0
69,197,71,35,11,207.0,1.0,95,34,9,5,9,6,2,1,-1,-1
70,200,69,34,9,210.0,1.0,105,35,7,4,7,5,3,2,-1,-2
71,203,64,31,4,213.0,2.0,95,35,2,1,2,2,0,0,-1,-3
72,205,73,36,1,216.0,1.0,105,36,11,6,11,7,-1,-1,1,-2
73,208,71,35,11,219.0,1.0,95,36,9,5,9,6,2,1,-1,-3
74,211,62,30,2,222.0,1.0,105,37,0,0,0,1,-4,-2,-1,-4
75,214,74,37,2,225.0,2.0,95,37,12,7,0,1,5,3,1,-3
76,216,78,39,6,228.0,1.0,105,38,16,9,4,3,2,1,1,-2
77,219,73,36,1,231.0,1.0,95,38,11,6,11,7,-1,-1,-1,-3
78,222,73,36,1,234.0,1.0,105,39,11,6,11,7,2,1,0,-3
79,225,69,34,9,237.0,2.0,95,39,7,4,7,5,0,0,-1,-4
80,227,73,36,1,240.0,1.0,105,40,11,6,11,7,-1,-1,1,-3
81,230,71,35,11,243.0,1.0,95,40,9,5,9,6,2,1,-1,-4
82,233,74,37,2,246.0,1.0,105,41,12,7,0,1,8,5,1,-3
83,236,62,30,2,249.0,2.0,95,41,0,0,0,1,-4,-2,-1,-4
84,238,73,36,1,252.0,1.0,105,42,11,6,11,7,-1,-1,1,-3
85,241,71,35,11,255.0,1.0,95,42,9,5,9,6,2,1,-1,-4
86,244,69,34,9,258.0,1.0,105,43,7,4,7,5,3,2,-1,-5
87,247,64,31,4,261.0,2.0,95,43,2,1,2,2,0,0,-1,-6
88,249,73,36,1,264.0,1.0,105,44,11,6,11,7,-1,-1,1,-5
89,252,71,35,11,267.0,1.0,95,44,9,5,9,6,2,1,-1,-6
90,255,62,30,2,270.0,1.0,105,45,0,0,0,1,-4,-2,-1,-7
91,258,74,37,2,273.0,2.0,95,45,12,7,0,1,5,3,1,-6
92,260,78,39,6,276.0,1.0,105,46,16,9,4,3,2,1,1,-5
93,263,73,36,1,279.0,1.0,95,46,11,6,11,7,-1,-1,-1,-6
94,266,73,36,1,282.0,1.0,105,47,11,6,11,7,2,1,0,-6
95,269,69,34,9,285.0,2.0,95,47,7,4,7,5,0,0,-1,-7
96,271,73,36,1,288.0,1.0,105,48,11,6,11,7,-1,-1,1,-6
97,274,76,38,4,291.0,1.0,95,48,14,8,2,2,7,4,1,-5
98,277,78,39,6,294.0,1.0,105,49,16,9,4,3,9,5,1,-4
99,280,76,38,4,297.0,1.0,95,49,14,8,2,2,-2,-1,-1,-5
100,283,74,37,2,300.0,1.0,105,50,12,7,0,1,1,1,-1,-6
101,286,78,39,6,303.0,1.0,95,50,16,9,4,3,7,4,1,-5
102,289,78,39,6,306.0,1.0,105,51,16,9,4,3,7,4,0,-5
103,292,78,39,6,309.0,1.0,95,51,16,9,4,3,0,0,0,-5
104,295,73,36,1,312.0,1.0,105,52,11,6,11,7,-1,-1,-1,-6
105,298,76,38,4,315.0,1.0,95,52,14,8,2,2,7,4,1,-5
106,301,78,39,6,318.0,1.0,105,53,16,9,4,3,9,5,1,-4
107,304,81,41,9,321.0,1.0,95,53,19,11,7,5,12,7,1,-3
108,307,78,39,6,324.0,1.0,105,54,16,9,4,3,9,5,-1,-4
109,310,73,36,1,327.0,1.0,95,54,11,6,11,7,-1,-1,-1,-5
110,313,73,36,1,330.0,1.0,105,55,11,6,11,7,2,1,0,-5
111,316,69,34,9,333.0,2.0,95,55,7,4,7,5,0,0,-1,-6
112,318,73,36,1,336.0,1.0,105,56,11,6,11,7,-1,-1,1,-5
113,321,76,38,4,339.0,1.0,95,56,14,8,2,2,7,4,1,-4
114,324,78,39,6,342.0,1.0,105,57,16,9,4,3,9,5,1,-3
115,327,76,38,4,345.0,1.0,95,57,14,8,2,2,-2,-1,-1,-4
116,330,74,37,2,348.0,1.0,105,58,12,7,0,1,1,1,-1,-5
117,333,78,39,6,351.0,1.0,95,58,16,9,4,3,7,4,1,-4
118,336,78,39,6,354.0,1.0,105,59,16,9,4,3,7,4,0,-4
119,339,78,39,6,357.0,1.0,95,59,16,9,4,3,0,0,0,-4
120,342,73,36,1,360.0,1.0,105,60,11,6,11,7,-1,-1,-1,-5
121,345,76,38,4,363.0,1.0,95,60,14,8,2,2,7,4,1,-4
122,348,78,39,6,366.0,1.0,105,61,16,9,4,3,9,5,1,-3
123,351,81,41,9,369.0,1.0,95,61,19,11,7,5,12,7,1,-2
124,354,78,39,6,372.0,1.0,105,62,16,9,4,3,9,5,-1,-3
125,357,73,36,1,375.0,1.0,95,62,11,6,11,7,-1,-1,-1,-4
126,360,73,36,1,378.0,1.0,105,63,11,6,11,7,2,1,0,-4
127,363,69,34,9,381.0,1.0,95,63,7,4,7,5,0,0,-1,-5
