,index,midi_note_num,diatonic_note_num,chromatic_pitch_class,onset,duration,velocity,bar_count,relative_chromatic_pitch,relative_diatonic_pitch,chromatic_scale_degree,diatonic_scale_degree,chromatic_interval,diatonic_interval,parsons_code,parsons_cumsum
0,0,62,30,2,0.0,2.0,105,0,-5,-3,7,5,0,0,0,0
1,2,71,35,11,3.0,1.0,95,0,4,2,4,3,-3,-2,1,1
2,5,69,34,9,6.0,1.0,95,0,2,1,2,2,-5,-3,-1,0
3,8,72,36,0,9.0,2.0,105,1,5,3,5,4,-2,-1,1,1
4,10,81,41,9,12.0,1.0,95,1,14,8,2,2,3,2,1,2
5,13,76,38,4,15.0,1.0,95,1,9,5,9,6,-2,-1,-1,1
6,16,62,30,2,18.0,2.0,105,2,-5,-3,7,5,-9,-5,-1,0
7,18,71,35,11,21.0,1.0,95,2,4,2,4,3,-3,-2,1,1
8,21,69,34,9,24.0,1.0,95,2,2,1,2,2,-5,-3,-1,0
9,24,72,36,0,27.0,3.0,105,3,5,3,5,4,-2,-1,1,1
10,25,71,35,11,30.0,1.0,95,3,4,2,4,3,-1,-1,-1,0
11,28,69,34,9,33.0,1.0,95,3,2,1,2,2,-2,-1,-1,-1
12,31,62,30,2,36.0,2.0,105,4,-5,-3,7,5,-2,-1,-1,-2
13,33,71,35,11,39.0,1.0,95,4,4,2,4,3,-3,-2,1,-1
14,36,69,34,9,42.0,1.0,95,4,2,1,2,2,-5,-3,-1,-2
15,39,78,39,6,45.0,1.0,105,5,11,6,11,7,4,2,1,-1
16,42,78,39,6,48.0,0.5,95,5,11,6,11,7,0,0,0,-1
17,46,79,40,7,51.0,1.0,95,5,12,7,0,1,1,1,1,0
18,49,72,36,0,54.0,2.0,105,6,5,3,5,4,-4,-2,-1,-1
19,51,81,41,9,57.0,1.0,95,6,14,8,2,2,3,2,1,0
20,54,76,38,4,60.0,1.0,95,6,9,5,9,6,-2,-1,-1,-1
21,57,71,35,11,63.0,1.0,105,7,4,2,4,3,-1,-1,-1,-2
22,60,66,32,6,66.0,1.0,95,7,-1,-1,11,7,-1,-1,-1,-3
23,63,67,33,7,69.0,3.0,95,7,0,0,0,1,-4,-2,1,-2
24,64,62,30,2,72.0,2.0,105,8,-5,-3,7,5,-5,-3,-1,-3
25,66,71,35,11,75.0,1.0,95,8,4,2,4,3,-3,-2,1,-2
26,69,69,34,9,78.0,1.0,95,8,2,1,2,2,-5,-3,-1,-3
27,72,72,36,0,81.0,2.0,105,9,5,3,5,4,-2,-1,1,-2
28,74,81,41,9,84.0,1.0,95,9,14,8,2,2,3,2,1,-1
29,77,76,38,4,87.0,1.0,95,9,9,5,9,6,-2,-1,-1,-2
30,80,62,30,2,90.0,2.0,105,10,-5,-3,7,5,-9,-5,-1,-3
31,82,71,35,11,93.0,1.0,95,10,4,2,4,3,-3,-2,1,-2
32,85,69,34,9,96.0,1.0,95,10,2,1,2,2,-5,-3,-1,-3
33,88,72,36,0,99.0,3.0,105,11,5,3,5,4,-2,-1,1,-2
34,89,71,35,11,102.0,1.0,95,11,4,2,4,3,-1,-1,-1,-3
35,92,69,34,9,105.0,1.0,95,11,2,1,2,2,-2,-1,-1,-4
36,95,62,30,2,108.0,2.0,105,12,-5,-3,7,5,-2,-1,-1,-5
37,97,71,35,11,111.0,1.0,95,12,4,2,4,3,-3,-2,1,-4
38,100,69,34,9,114.0,1.0,95,12,2,1,2,2,-5,-3,-1,-5
39,103,78,39,6,117.0,1.0,105,13,11,6,11,7,4,2,1,-4
40,106,78,39,6,120.0,0.5,95,13,11,6,11,7,0,0,0,-4
41,110,79,40,7,123.0,1.0,95,13,12,7,0,1,1,1,1,-3
42,113,72,36,0,126.0,2.0,105,14,5,3,5,4,-4,-2,-1,-4
43,115,81,41,9,129.0,1.0,95,14,14,8,2,2,3,2,1,-3
44,118,76,38,4,132.0,1.0,95,14,9,5,9,6,-2,-1,-1,-4
45,121,71,35,11,135.0,1.0,105,15,4,2,4,3,-1,-1,-1,-5
46,124,66,32,6,138.0,1.0,95,15,-1,-1,11,7,-1,-1,-1,-6
47,127,67,33,7,141.0,3.0,95,15,0,0,0,1,-4,-2,1,-5
48,128,79,40,7,144.0,3.0,105,16,12,7,0,1,12,7,1,-4
49,129,79,40,7,147.0,3.0,95,16,12,7,0,1,0,0,0,-4
50,130,79,40,7,150.0,1.0,95,16,12,7,0,1,0,0,0,-4
51,133,78,39,6,153.0,3.0,105,17,11,6,11,7,2,1,-1,-5
52,134,78,39,6,156.0,3.0,95,17,11,6,11,7,0,0,0,-5
53,135,78,39,6,159.0,1.0,95,17,11,6,11,7,0,0,0,-5
54,138,71,35,11,162.0,1.0,105,18,4,2,4,3,-3,-2,-1,-6
55,141,71,35,11,165.0,1.0,95,18,4,2,4,3,0,0,0,-6
56,144,76,38,4,168.0,1.0,95,18,9,5,9,6,2,1,1,-5
57,147,79,40,7,171.0,1.0,105,19,12,7,0,1,-2,-1,1,-4
58,150,78,39,6,174.0,1.0,95,19,11,6,11,7,-1,-1,-1,-5
59,153,79,40,7,177.0,1.0,95,19,12,7,0,1,1,1,1,-4
60,156,79,40,7,180.0,3.0,105,20,12,7,0,1,3,2,0,-4
61,157,79,40,7,183.0,3.0,95,20,12,7,0,1,0,0,0,-4
62,158,79,40,7,186.0,1.0,95,20,12,7,0,1,0,0,0,-4
63,161,78,39,6,189.0,3.0,105,21,11,6,11,7,2,1,-1,-5
64,162,78,39,6,192.0,3.0,95,21,11,6,11,7,0,0,0,-5
65,163,78,39,6,195.0,1.0,95,21,11,6,11,7,0,0,0,-5
66,166,72,36,0,198.0,2.0,105,22,5,3,5,4,-2,-1,-1,-6
67,168,81,41,9,201.0,1.0,95,22,14,8,2,2,3,2,1,-5
68,171,76,38,4,204.0,1.0,95,22,9,5,9,6,-2,-1,-1,-6
69,174,71,35,11,207.0,1.0,105,23,4,2,4,3,-1,-1,-1,-7
70,177,66,32,6,210.0,1.0,95,23,-1,-1,11,7,-1,-1,-1,-8
71,180,67,33,7,213.0,3.0,95,23,0,0,0,1,-4,-2,1,-7
72,181,79,40,7,216.0,3.0,105,24,12,7,0,1,12,7,1,-6
73,182,79,40,7,219.0,3.0,95,24,12,7,0,1,0,0,0,-6
74,183,79,40,7,222.0,1.0,95,24,12,7,0,1,0,0,0,-6
75,186,78,39,6,225.0,3.0,105,25,11,6,11,7,2,1,-1,-7
76,187,78,39,6,228.0,3.0,95,25,11,6,11,7,0,0,0,-7
77,188,78,39,6,231.0,1.0,95,25,11,6,11,7,0,0,0,-7
78,191,71,35,11,234.0,1.0,105,26,4,2,4,3,-3,-2,-1,-8
79,194,71,35,11,237.0,1.0,95,26,4,2,4,3,0,0,0,-8
80,197,76,38,4,240.0,1.0,95,26,9,5,9,6,2,1,1,-7
81,200,79,40,7,243.0,1.0,105,27,12,7,0,1,-2,-1,1,-6
82,203,78,39,6,246.0,1.0,95,27,11,6,11,7,-1,-1,-1,-7
83,206,79,40,7,249.0,1.0,95,27,12,7,0,1,1,1,1,-6
84,209,79,40,7,252.0,3.0,105,28,12,7,0,1,3,2,0,-6
85,210,79,40,7,255.0,3.0,95,28,12,7,0,1,0,0,0,-6
86,211,79,40,7,258.0,1.0,95,28,12,7,0,1,0,0,0,-6
87,214,78,39,6,261.0,3.0,105,29,11,6,11,7,2,1,-1,-7
88,215,78,39,6,264.0,3.0,95,29,11,6,11,7,0,0,0,-7
89,216,78,39,6,267.0,1.0,95,29,11,6,11,7,0,0,0,-7
90,219,72,36,0,270.0,2.0,105,30,5,3,5,4,-2,-1,-1,-8
91,221,81,41,9,273.0,1.0,95,30,14,8,2,2,3,2,1,-7
92,224,76,38,4,276.0,1.0,95,30,9,5,9,6,-2,-1,-1,-8
93,227,71,35,11,279.0,1.0,105,31,4,2,4,3,-1,-1,-1,-9
94,230,66,32,6,282.0,1.0,95,31,-1,-1,11,7,-1,-1,-1,-10
95,233,67,33,7,285.0,3.0,95,31,0,0,0,1,-4,-2,1,-9
96,234,62,30,2,288.0,1.0,105,32,-5,-3,7,5,-5,-3,-1,-10
97,237,64,31,4,291.0,1.0,95,32,-3,-2,9,6,2,1,1,-9
98,240,66,32,6,294.0,1.0,95,32,-1,-1,11,7,4,2,1,-8
99,243,71,35,11,297.0,3.0,105,33,4,2,4,3,9,5,1,-7
100,244,72,36,0,300.0,3.0,95,33,5,3,5,4,1,1,1,-6
101,245,74,37,2,303.0,3.0,95,33,7,4,7,5,2,1,1,-5
102,246,62,30,2,306.0,1.0,105,34,-5,-3,7,5,-12,-7,-1,-6
103,249,64,31,4,309.0,1.0,95,34,-3,-2,9,6,2,1,1,-5
104,252,66,32,6,312.0,1.0,95,34,-1,-1,11,7,4,2,1,-4
105,255,67,33,7,315.0,3.0,105,35,0,0,0,1,5,3,1,-3
106,256,66,32,6,318.0,1.0,95,35,-1,-1,11,7,-1,-1,-1,-4
107,259,71,35,11,321.0,1.0,95,35,4,2,4,3,2,1,1,-3
108,262,62,30,2,324.0,1.0,105,36,-5,-3,7,5,-2,-1,-1,-4
109,265,64,31,4,327.0,1.0,95,36,-3,-2,9,6,2,1,1,-3
110,268,66,32,6,330.0,1.0,95,36,-1,-1,11,7,4,2,1,-2
111,271,71,35,11,333.0,1.0,105,37,4,2,4,3,9,5,1,-1
112,274,72,36,0,336.0,1.0,95,37,5,3,5,4,10,6,1,0
113,277,74,37,2,339.0,2.0,95,37,7,4,7,5,12,7,1,1
114,279,72,36,0,342.0,2.0,105,38,5,3,5,4,1,1,-1,0
115,281,81,41,9,345.0,1.0,95,38,14,8,2,2,3,2,1,1
116,284,76,38,4,348.0,1.0,95,38,9,5,9,6,-2,-1,-1,0
117,287,71,35,11,351.0,1.0,105,39,4,2,4,3,-1,-1,-1,-1
118,290,66,32,6,354.0,1.0,95,39,-1,-1,11,7,-1,-1,-1,-2
119,293,67,33,7,357.0,3.0,95,39,0,0,0,1,-4,-2,1,-1
120,294,62,30,2,360.0,1.0,105,40,-5,-3,7,5,-5,-3,-1,-2
121,297,64,31,4,363.0,1.0,95,40,-3,-2,9,6,2,1,1,-1
122,300,66,32,6,366.0,1.0,95,40,-1,-1,11,7,4,2,1,0
123,303,71,35,11,369.0,3.0,105,41,4,2,4,3,9,5,1,1
124,304,72,36,0,372.0,3.0,95,41,5,3,5,4,1,1,1,2
125,305,74,37,2,375.0,3.0,95,41,7,4,7,5,2,1,1,3
126,306,62,30,2,378.0,1.0,105,42,-5,-3,7,5,-12,-7,-1,2
127,309,64,31,4,381.0,1.0,95,42,-3,-2,9,6,2,1,1,3
128,312,66,32,6,384.0,1.0,95,42,-1,-1,11,7,4,2,1,4
129,315,67,33,7,387.0,3.0,105,43,0,0,0,1,5,3,1,5
130,316,66,32,6,390.0,1.0,95,43,-1,-1,11,7,-1,-1,-1,4
131,319,71,35,11,393.0,1.0,95,43,4,2,4,3,2,1,1,5
132,322,62,30,2,396.0,1.0,105,44,-5,-3,7,5,-2,-1,-1,4
133,325,64,31,4,399.0,1.0,95,44,-3,-2,9,6,2,1,1,5
134,328,66,32,6,402.0,1.0,95,44,-1,-1,11,7,4,2,1,6
135,331,71,35,11,405.0,1.0,105,45,4,2,4,3,9,5,1,7
136,334,72,36,0,408.0,1.0,95,45,5,3,5,4,10,6,1,8
137,337,74,37,2,411.0,2.0,95,45,7,4,7,5,12,7,1,9
138,339,72,36,0,414.0,2.0,105,46,5,3,5,4,1,1,-1,8
139,341,81,41,9,417.0,1.0,95,46,14,8,2,2,3,2,1,9
140,344,76,38,4,420.0,1.0,95,46,9,5,9,6,-2,-1,-1,8
141,347,71,35,11,423.0,1.0,105,47,4,2,4,3,-1,-1,-1,7
142,350,66,32,6,426.0,1.0,95,47,-1,-1,11,7,-1,-1,-1,6
143,353,67,33,7,429.0,3.0,95,47,0,0,0,1,-4,-2,1,7
