,index,midi_note_num,diatonic_note_num,chromatic_pitch_class,onset,duration,velocity,bar_count,relative_chromatic_pitch,relative_diatonic_pitch,chromatic_scale_degree,diatonic_scale_degree,chromatic_interval,diatonic_interval,parsons_code,parsons_cumsum
0,0,69,34,9,0.0,1.0,105,0,2,1,2,2,0,0,0,0
1,4,78,39,6,4.0,1.0,95,0,11,6,11,7,2,1,1,1
2,8,72,36,0,8.0,1.0,105,1,5,3,5,4,-2,-1,-1,0
3,12,60,29,0,12.0,1.0,95,1,-7,-4,5,4,-4,-2,-1,-1
4,16,60,29,0,16.0,2.0,105,2,-7,-4,5,4,-4,-2,0,-1
5,19,69,34,9,20.0,1.0,95,2,2,1,2,2,9,5,1,0
6,23,60,29,0,24.0,2.0,105,3,-7,-4,5,4,0,0,-1,-1
7,26,72,36,0,28.0,1.0,95,3,5,3,5,4,12,7,1,0
8,30,62,30,2,32.0,2.0,105,4,-5,-3,7,5,-2,-1,-1,-1
9,33,74,37,2,36.0,1.0,95,4,7,4,7,5,12,7,1,0
10,37,69,34,9,40.0,1.0,105,5,2,1,2,2,7,4,-1,-1
11,41,74,37,2,44.0,2.0,95,5,7,4,7,5,5,3,1,0
12,45,81,41,9,48.0,1.0,105,6,14,8,2,2,2,1,1,1
13,49,77,39,5,52.0,3.0,95,6,10,6,10,7,1,1,-1,0
14,51,74,37,2,56.0,1.0,105,7,7,4,7,5,-2,-1,-1,-1
15,55,67,33,7,60.0,2.0,95,7,0,0,0,1,1,1,-1,-2
16,58,69,34,9,64.0,1.0,105,8,2,1,2,2,2,1,1,-1
17,62,78,39,6,68.0,1.0,95,8,11,6,11,7,2,1,1,0
18,66,72,36,0,72.0,1.0,105,9,5,3,5,4,-2,-1,-1,-1
19,70,60,29,0,76.0,1.0,95,9,-7,-4,5,4,-4,-2,-1,-2
20,74,60,29,0,80.0,2.0,105,10,-7,-4,5,4,-4,-2,0,-2
21,77,69,34,9,84.0,1.0,95,10,2,1,2,2,9,5,1,-1
22,81,60,29,0,88.0,2.0,105,11,-7,-4,5,4,0,0,-1,-2
23,84,72,36,0,92.0,1.0,95,11,5,3,5,4,12,7,1,-1
24,88,62,30,2,96.0,2.0,105,12,-5,-3,7,5,-2,-1,-1,-2
25,91,74,37,2,100.0,1.0,95,12,7,4,7,5,12,7,1,-1
26,95,69,34,9,104.0,1.0,105,13,2,1,2,2,7,4,-1,-2
27,99,74,37,2,108.0,2.0,95,13,7,4,7,5,5,3,1,-1
28,103,81,41,9,112.0,1.0,105,14,14,8,2,2,2,1,1,0
29,107,77,39,5,116.0,3.0,95,14,10,6,10,7,1,1,-1,-1
30,109,74,37,2,120.0,1.0,105,15,7,4,7,5,-2,-1,-1,-2
31,113,67,33,7,124.0,2.0,95,15,0,0,0,1,1,1,-1,-3
32,116,69,34,9,128.0,1.0,105,16,2,1,2,2,2,1,1,-2
33,119,81,41,9,132.0,1.0,95,16,14,8,2,2,7,4,1,-1
34,123,69,34,9,136.0,1.0,105,17,2,1,2,2,-5,-3,-1,-2
35,127,72,36,0,140.0,1.0,95,17,5,3,5,4,1,1,1,-1
36,131,69,34,9,144.0,1.0,105,18,2,1,2,2,2,1,-1,-2
37,134,78,39,6,148.0,1.0,95,18,11,6,11,7,4,2,1,-1
38,138,72,36,0,152.0,1.0,105,19,5,3,5,4,-2,-1,-1,-2
39,142,64,31,4,156.0,1.0,95,19,-3,-2,9,6,4,2,-1,-3
40,146,69,34,9,160.0,1.0,105,20,2,1,2,2,-3,-2,1,-2
41,149,78,39,6,164.0,1.0,95,20,11,6,11,7,4,2,1,-1
42,153,74,37,2,168.0,1.0,105,21,7,4,7,5,0,0,-1,-2
43,157,72,36,0,172.0,1.0,95,21,5,3,5,4,1,1,-1,-3
44,161,69,34,9,176.0,3.0,105,22,2,1,2,2,2,1,-1,-4
45,163,69,34,9,180.0,1.0,95,22,2,1,2,2,-2,-1,0,-4
46,167,71,35,11,184.0,1.0,105,23,4,2,4,3,2,1,1,-3
47,171,72,36,0,188.0,2.0,95,23,5,3,5,4,1,1,1,-2
48,174,69,34,9,192.0,1.0,105,24,2,1,2,2,-3,-2,-1,-3
49,177,81,41,9,196.0,1.0,95,24,14,8,2,2,7,4,1,-2
50,181,69,34,9,200.0,1.0,105,25,2,1,2,2,-5,-3,-1,-3
51,185,72,36,0,204.0,1.0,95,25,5,3,5,4,1,1,1,-2
52,189,69,34,9,208.0,1.0,105,26,2,1,2,2,2,1,-1,-3
53,192,78,39,6,212.0,1.0,95,26,11,6,11,7,4,2,1,-2
54,196,72,36,0,216.0,1.0,105,27,5,3,5,4,-2,-1,-1,-3
55,200,64,31,4,220.0,1.0,95,27,-3,-2,9,6,4,2,-1,-4
56,204,69,34,9,224.0,1.0,105,28,2,1,2,2,-3,-2,1,-3
57,207,78,39,6,228.0,1.0,95,28,11,6,11,7,4,2,1,-2
58,211,74,37,2,232.0,1.0,105,29,7,4,7,5,0,0,-1,-3
59,215,72,36,0,236.0,1.0,95,29,5,3,5,4,1,1,-1,-4
60,219,69,34,9,240.0,3.0,105,30,2,1,2,2,2,1,-1,-5
61,221,69,34,9,244.0,1.0,95,30,2,1,2,2,-2,-1,0,-5
62,225,71,35,11,248.0,1.0,105,31,4,2,4,3,2,1,1,-4
63,229,72,36,0,252.0,2.0,95,31,5,3,5,4,1,1,1,-3
64,232,69,34,9,256.0,1.0,105,32,2,1,2,2,-3,-2,-1,-4
65,235,69,34,9,260.0,1.0,95,32,2,1,2,2,7,4,0,-4
66,239,69,34,9,264.0,1.0,105,33,2,1,2,2,7,4,0,-4
67,243,72,36,0,268.0,2.0,95,33,5,3,5,4,3,2,1,-3
68,246,69,34,9,272.0,1.0,105,34,2,1,2,2,-3,-2,-1,-4
69,249,69,34,9,276.0,1.0,95,34,2,1,2,2,7,4,0,-4
70,253,67,33,7,280.0,1.0,105,35,0,0,0,1,5,3,-1,-5
71,256,64,31,4,284.0,1.0,95,35,-3,-2,9,6,4,2,-1,-6
72,260,69,34,9,288.0,1.0,105,36,2,1,2,2,-3,-2,1,-5
73,263,69,34,9,292.0,1.0,95,36,2,1,2,2,7,4,0,-5
74,267,69,34,9,296.0,1.0,105,37,2,1,2,2,7,4,0,-5
75,271,72,36,0,300.0,2.0,95,37,5,3,5,4,3,2,1,-4
76,274,69,34,9,304.0,3.0,105,38,2,1,2,2,-3,-2,-1,-5
77,276,69,34,9,308.0,1.0,95,38,2,1,2,2,-2,-1,0,-5
78,280,71,35,11,312.0,1.0,105,39,4,2,4,3,2,1,1,-4
79,284,72,36,0,316.0,1.0,95,39,5,3,5,4,1,1,1,-3
80,288,69,34,9,320.0,1.0,105,40,2,1,2,2,-3,-2,-1,-4
81,291,69,34,9,324.0,1.0,95,40,2,1,2,2,7,4,0,-4
82,295,69,34,9,328.0,1.0,105,41,2,1,2,2,7,4,0,-4
83,299,72,36,0,332.0,2.0,95,41,5,3,5,4,3,2,1,-3
84,302,69,34,9,336.0,1.0,105,42,2,1,2,2,-3,-2,-1,-4
85,305,69,34,9,340.0,1.0,95,42,2,1,2,2,7,4,0,-4
86,309,67,33,7,344.0,1.0,105,43,0,0,0,1,5,3,-1,-5
87,312,64,31,4,348.0,1.0,95,43,-3,-2,9,6,4,2,-1,-6
88,316,69,34,9,352.0,1.0,105,44,2,1,2,2,-3,-2,1,-5
89,319,69,34,9,356.0,1.0,95,44,2,1,2,2,7,4,0,-5
90,323,69,34,9,360.0,1.0,105,45,2,1,2,2,7,4,0,-5
91,327,72,36,0,364.0,2.0,95,45,5,3,5,4,3,2,1,-4
92,330,69,34,9,368.0,3.0,105,46,2,1,2,2,-3,-2,-1,-5
93,332,69,34,9,372.0,1.0,95,46,2,1,2,2,-2,-1,0,-5
94,336,71,35,11,376.0,1.0,105,47,4,2,4,3,2,1,1,-4
95,340,72,36,0,380.0,1.0,95,47,5,3,5,4,1,1,1,-3
