,index,midi_note_num,diatonic_note_num,chromatic_pitch_class,onset,duration,velocity,bar_count,relative_chromatic_pitch,relative_diatonic_pitch,chromatic_scale_degree,diatonic_scale_degree,chromatic_interval,diatonic_interval,parsons_code,parsons_cumsum
0,1,74,37,2,1.0,1.0,105,0,7,4,7,5,0,0,0,0
1,4,67,33,7,4.0,1.0,95,0,0,0,0,1,1,1,-1,-1
2,7,55,26,7,7.0,1.0,105,1,-12,-7,0,1,-4,-2,-1,-2
3,10,62,30,2,10.0,1.0,95,1,-5,-3,7,5,7,4,1,-1
4,13,64,31,4,13.0,1.0,105,2,-3,-2,9,6,2,1,1,0
5,16,69,34,9,16.0,1.0,95,2,2,1,2,2,-2,-1,1,1
6,19,66,32,6,19.0,1.0,105,3,-1,-1,11,7,-3,-2,-1,0
7,22,72,36,0,22.0,1.0,95,3,5,3,5,4,10,6,1,1
8,25,71,35,11,25.0,1.0,105,4,4,2,4,3,2,1,-1,0
9,28,71,35,11,28.0,1.0,95,4,4,2,4,3,-3,-2,0,0
10,30,64,31,4,32.0,1.0,105,5,-3,-2,9,6,-3,-2,-1,-1
11,34,60,29,0,35.0,1.0,95,5,-7,-4,5,4,-4,-2,-1,-2
12,37,62,30,2,38.0,1.0,105,6,-5,-3,7,5,-5,-3,1,-1
13,40,71,35,11,41.0,1.0,95,6,4,2,4,3,-1,-1,1,0
14,43,69,34,9,44.0,1.0,105,7,2,1,2,2,3,2,-1,-1
15,46,67,33,7,47.0,2.0,95,7,0,0,0,1,1,1,-1,-2
16,48,74,37,2,50.0,1.0,105,8,7,4,7,5,3,2,1,-1
17,51,67,33,7,53.0,1.0,95,8,0,0,0,1,1,1,-1,-2
18,54,55,26,7,56.0,1.0,105,9,-12,-7,0,1,-4,-2,-1,-3
19,57,62,30,2,59.0,1.0,95,9,-5,-3,7,5,7,4,1,-2
20,60,64,31,4,62.0,1.0,105,10,-3,-2,9,6,2,1,1,-1
21,63,69,34,9,65.0,1.0,95,10,2,1,2,2,-2,-1,1,0
22,66,66,32,6,68.0,1.0,105,11,-1,-1,11,7,-3,-2,-1,-1
23,69,72,36,0,71.0,1.0,95,11,5,3,5,4,10,6,1,0
24,72,71,35,11,74.0,1.0,105,12,4,2,4,3,2,1,-1,-1
25,75,71,35,11,77.0,1.0,95,12,4,2,4,3,-3,-2,0,-1
26,77,64,31,4,81.0,1.0,105,13,-3,-2,9,6,-3,-2,-1,-2
27,81,60,29,0,84.0,1.0,95,13,-7,-4,5,4,-4,-2,-1,-3
28,84,62,30,2,87.0,1.0,105,14,-5,-3,7,5,-5,-3,1,-2
29,87,71,35,11,90.0,1.0,95,14,4,2,4,3,-1,-1,1,-1
30,90,69,34,9,93.0,1.0,105,15,2,1,2,2,3,2,-1,-2
31,93,67,33,7,96.0,2.0,95,15,0,0,0,1,1,1,-1,-3
32,95,71,35,11,99.0,1.0,105,16,4,2,4,3,2,1,1,-2
33,100,67,33,7,102.0,1.0,95,16,0,0,0,1,-4,-2,-1,-3
34,105,76,38,4,105.0,1.0,105,17,9,5,9,6,9,5,1,-2
35,108,69,34,9,108.0,1.0,95,17,2,1,2,2,-3,-2,-1,-3
36,111,66,32,6,111.0,1.0,105,18,-1,-1,11,7,2,1,-1,-4
37,116,78,39,6,114.0,1.0,95,18,11,6,11,7,12,7,1,-3
38,121,76,38,4,117.0,1.0,105,19,9,5,9,6,-2,-1,-1,-4
39,124,74,37,2,120.0,2.0,95,19,7,4,7,5,2,1,-1,-5
40,126,71,35,11,123.0,1.0,105,20,4,2,4,3,-1,-1,-1,-6
41,130,67,33,7,126.0,1.0,95,20,0,0,0,1,-4,-2,-1,-7
42,133,76,38,4,129.0,1.0,105,21,9,5,9,6,-2,-1,1,-6
43,136,64,31,4,132.0,3.0,95,21,-3,-2,9,6,-5,-3,-1,-7
44,137,62,30,2,135.0,1.0,105,22,-5,-3,7,5,-2,-1,-1,-8
45,140,71,35,11,138.0,1.0,95,22,4,2,4,3,-1,-1,1,-7
46,143,69,34,9,141.0,1.0,105,23,2,1,2,2,3,2,-1,-8
47,146,67,33,7,144.0,2.0,95,23,0,0,0,1,1,1,-1,-9
48,148,71,35,11,147.0,1.0,105,24,4,2,4,3,2,1,1,-8
49,153,67,33,7,150.0,1.0,95,24,0,0,0,1,-4,-2,-1,-9
50,158,76,38,4,153.0,1.0,105,25,9,5,9,6,9,5,1,-8
51,161,69,34,9,156.0,1.0,95,25,2,1,2,2,-3,-2,-1,-9
52,164,66,32,6,159.0,1.0,105,26,-1,-1,11,7,2,1,-1,-10
53,169,78,39,6,162.0,1.0,95,26,11,6,11,7,12,7,1,-9
54,174,76,38,4,165.0,1.0,105,27,9,5,9,6,-2,-1,-1,-10
55,177,74,37,2,168.0,2.0,95,27,7,4,7,5,2,1,-1,-11
56,179,71,35,11,171.0,1.0,105,28,4,2,4,3,-1,-1,-1,-12
57,183,67,33,7,174.0,1.0,95,28,0,0,0,1,-4,-2,-1,-13
58,186,76,38,4,177.0,1.0,105,29,9,5,9,6,-2,-1,1,-12
59,189,64,31,4,180.0,3.0,95,29,-3,-2,9,6,-5,-3,-1,-13
60,190,62,30,2,183.0,1.0,105,30,-5,-3,7,5,-2,-1,-1,-14
61,193,71,35,11,186.0,1.0,95,30,4,2,4,3,-1,-1,1,-13
62,196,69,34,9,189.0,1.0,105,31,2,1,2,2,3,2,-1,-14
63,199,67,33,7,192.0,2.0,95,31,0,0,0,1,1,1,-1,-15
64,201,67,33,7,195.0,1.0,105,32,0,0,0,1,5,3,0,-15
65,204,79,40,7,198.0,1.0,95,32,12,7,0,1,5,3,1,-14
66,209,76,38,4,201.0,1.0,105,33,9,5,9,6,-3,-2,-1,-15
67,212,72,36,0,204.0,1.0,95,33,5,3,5,4,1,1,-1,-16
68,215,71,35,11,207.0,1.0,105,34,4,2,4,3,2,1,-1,-17
69,219,81,41,9,210.0,2.0,95,34,14,8,2,2,10,6,1,-16
70,221,78,39,6,213.0,1.0,105,35,11,6,11,7,-1,-1,-1,-17
71,224,74,37,2,216.0,2.0,95,35,7,4,7,5,2,1,-1,-18
72,226,79,40,7,219.0,1.0,105,36,12,7,0,1,1,1,1,-17
73,229,67,33,7,222.0,1.0,95,36,0,0,0,1,-4,-2,-1,-18
74,232,76,38,4,225.0,1.0,105,37,9,5,9,6,-2,-1,1,-17
75,235,64,31,4,228.0,1.0,95,37,-3,-2,9,6,-5,-3,-1,-18
76,240,62,30,2,231.0,1.0,105,38,-5,-3,7,5,-2,-1,-1,-19
77,243,71,35,11,234.0,1.0,95,38,4,2,4,3,-1,-1,1,-18
78,246,69,34,9,237.0,1.0,105,39,2,1,2,2,3,2,-1,-19
79,249,67,33,7,240.0,2.0,95,39,0,0,0,1,1,1,-1,-20
80,251,67,33,7,243.0,1.0,105,40,0,0,0,1,5,3,0,-20
81,254,79,40,7,246.0,1.0,95,40,12,7,0,1,5,3,1,-19
82,259,76,38,4,249.0,1.0,105,41,9,5,9,6,-3,-2,-1,-20
83,262,72,36,0,252.0,1.0,95,41,5,3,5,4,1,1,-1,-21
84,265,71,35,11,255.0,1.0,105,42,4,2,4,3,2,1,-1,-22
85,269,81,41,9,258.0,2.0,95,42,14,8,2,2,10,6,1,-21
86,271,78,39,6,261.0,1.0,105,43,11,6,11,7,-1,-1,-1,-22
87,274,74,37,2,264.0,2.0,95,43,7,4,7,5,2,1,-1,-23
88,276,79,40,7,267.0,1.0,105,44,12,7,0,1,1,1,1,-22
89,279,67,33,7,270.0,1.0,95,44,0,0,0,1,-4,-2,-1,-23
90,282,76,38,4,273.0,1.0,105,45,9,5,9,6,-2,-1,1,-22
91,285,64,31,4,276.0,1.0,95,45,-3,-2,9,6,-5,-3,-1,-23
92,290,62,30,2,279.0,1.0,105,46,-5,-3,7,5,-2,-1,-1,-24
93,293,71,35,11,282.0,1.0,95,46,4,2,4,3,-1,-1,1,-23
94,296,69,34,9,285.0,1.0,105,47,2,1,2,2,3,2,-1,-24
95,299,67,33,7,288.0,2.0,95,47,0,0,0,1,1,1,-1,-25
