,index,midi_note_num,diatonic_note_num,chromatic_pitch_class,onset,duration,velocity,bar_count,relative_chromatic_pitch,relative_diatonic_pitch,chromatic_scale_degree,diatonic_scale_degree,chromatic_interval,diatonic_interval,parsons_code,parsons_cumsum
0,2,69,34,9,2.0,2.0,105,0,7,4,7,5,0,0,0,0
1,6,66,32,6,6.0,2.0,95,0,4,2,4,3,-3,-2,-1,-1
2,8,74,37,2,10.0,2.0,105,1,12,7,0,1,5,3,1,0
3,10,78,39,6,14.0,1.5,95,1,16,9,4,3,9,5,1,1
4,14,71,35,11,18.0,2.0,105,2,9,5,9,6,-2,-1,-1,0
5,18,67,33,7,22.0,2.0,95,2,5,3,5,4,-4,-2,-1,-1
6,20,76,38,4,26.0,1.5,105,3,14,8,2,2,5,3,1,0
7,24,76,38,4,30.0,1.5,95,3,14,8,2,2,-2,-1,0,0
8,28,69,34,9,34.0,2.0,105,4,7,4,7,5,-2,-1,-1,-1
9,32,66,32,6,38.0,2.0,95,4,4,2,4,3,-3,-2,-1,-2
10,36,74,37,2,42.0,2.0,105,5,12,7,0,1,5,3,1,-1
11,39,78,39,6,46.0,2.0,95,5,16,9,4,3,4,2,1,0
12,41,73,36,1,50.0,2.0,105,6,11,6,11,7,-1,-1,-1,-1
13,44,79,40,7,54.0,1.5,95,6,17,10,5,4,6,4,1,0
14,48,76,38,4,58.0,0.67,105,7,14,8,2,2,3,2,-1,-1
15,52,74,37,2,62.0,2.0,95,7,12,7,0,1,0,0,-1,-2
16,55,69,34,9,66.0,2.0,105,8,7,4,7,5,2,1,-1,-3
17,59,66,32,6,70.0,2.0,95,8,4,2,4,3,-3,-2,-1,-4
18,61,74,37,2,74.0,2.0,105,9,12,7,0,1,5,3,1,-3
19,63,78,39,6,78.0,1.5,95,9,16,9,4,3,9,5,1,-2
20,67,71,35,11,82.0,2.0,105,10,9,5,9,6,-2,-1,-1,-3
21,71,67,33,7,86.0,2.0,95,10,5,3,5,4,-4,-2,-1,-4
22,73,76,38,4,90.0,1.5,105,11,14,8,2,2,5,3,1,-3
23,77,76,38,4,94.0,1.5,95,11,14,8,2,2,-2,-1,0,-3
24,81,69,34,9,98.0,2.0,105,12,7,4,7,5,-2,-1,-1,-4
25,85,66,32,6,102.0,2.0,95,12,4,2,4,3,-3,-2,-1,-5
26,89,74,37,2,106.0,2.0,105,13,12,7,0,1,5,3,1,-4
27,92,78,39,6,110.0,2.0,95,13,16,9,4,3,4,2,1,-3
28,94,73,36,1,114.0,2.0,105,14,11,6,11,7,-1,-1,-1,-4
29,97,79,40,7,118.0,1.5,95,14,17,10,5,4,6,4,1,-3
30,101,76,38,4,122.0,0.67,105,15,14,8,2,2,3,2,-1,-4
31,105,74,37,2,126.0,2.0,95,15,12,7,0,1,0,0,-1,-5
32,107,78,39,6,130.0,2.0,105,16,16,9,4,3,-1,-1,1,-4
33,110,83,42,11,134.0,1.5,95,16,21,12,9,6,2,1,1,-3
34,114,81,41,9,138.0,2.0,105,17,19,11,7,5,-2,-1,-1,-4
35,116,74,37,2,142.0,2.0,95,17,12,7,0,1,5,3,-1,-5
36,118,76,38,4,146.0,2.0,105,18,14,8,2,2,-2,-1,1,-4
37,121,79,40,7,150.0,1.5,95,18,17,10,5,4,0,0,1,-3
38,125,74,37,2,154.0,1.5,105,19,12,7,0,1,1,1,-1,-4
39,129,78,39,6,158.0,1.5,95,19,16,9,4,3,2,1,1,-3
40,133,78,39,6,162.0,1.5,105,20,16,9,4,3,4,2,0,-3
41,137,83,42,11,166.0,2.0,95,20,21,12,9,6,0,0,1,-2
42,140,81,41,9,170.0,2.0,105,21,19,11,7,5,-2,-1,-1,-3
43,143,78,39,6,174.0,2.0,95,21,16,9,4,3,4,2,-1,-4
44,145,76,38,4,178.0,1.5,105,22,14,8,2,2,-5,-3,-1,-5
45,149,79,40,7,182.0,1.5,95,22,17,10,5,4,1,1,1,-4
46,153,76,38,4,186.0,0.67,105,23,14,8,2,2,3,2,-1,-5
47,157,74,37,2,190.0,2.0,95,23,12,7,0,1,0,0,-1,-6
48,159,78,39,6,194.0,2.0,105,24,16,9,4,3,-1,-1,1,-5
49,162,83,42,11,198.0,1.5,95,24,21,12,9,6,2,1,1,-4
50,166,81,41,9,202.0,2.0,105,25,19,11,7,5,-2,-1,-1,-5
51,168,74,37,2,206.0,2.0,95,25,12,7,0,1,5,3,-1,-6
52,170,76,38,4,210.0,2.0,105,26,14,8,2,2,-2,-1,1,-5
53,173,79,40,7,214.0,1.5,95,26,17,10,5,4,0,0,1,-4
54,177,74,37,2,218.0,1.5,105,27,12,7,0,1,1,1,-1,-5
55,181,78,39,6,222.0,1.5,95,27,16,9,4,3,2,1,1,-4
56,185,78,39,6,226.0,1.5,105,28,16,9,4,3,4,2,0,-4
57,189,83,42,11,230.0,2.0,95,28,21,12,9,6,0,0,1,-3
58,192,81,41,9,234.0,2.0,105,29,19,11,7,5,-2,-1,-1,-4
59,195,78,39,6,238.0,2.0,95,29,16,9,4,3,4,2,-1,-5
60,197,76,38,4,242.0,1.5,105,30,14,8,2,2,-5,-3,-1,-6
61,201,79,40,7,246.0,1.5,95,30,17,10,5,4,1,1,1,-5
62,205,76,38,4,250.0,0.67,105,31,14,8,2,2,3,2,-1,-6
63,209,74,37,2,254.0,2.0,95,31,12,7,0,1,0,0,-1,-7
64,213,69,34,9,258.0,1.5,105,32,7,4,7,5,2,1,-1,-8
65,217,69,34,9,262.0,1.5,95,32,7,4,7,5,-5,-3,0,-8
66,221,69,34,9,266.0,1.5,105,33,7,4,7,5,3,2,0,-8
67,225,69,34,9,270.0,2.0,95,33,7,4,7,5,-5,-3,0,-8
68,228,69,34,9,274.0,2.0,105,34,7,4,7,5,2,1,0,-8
69,231,64,31,4,278.0,1.5,95,34,2,1,2,2,-3,-2,-1,-9
70,235,71,35,11,282.0,2.0,105,35,9,5,9,6,4,2,1,-8
71,238,66,32,6,286.0,1.5,95,35,4,2,4,3,-1,-1,-1,-9
72,242,69,34,9,290.0,0.67,105,36,7,4,7,5,2,1,1,-8
73,247,69,34,9,294.0,2.0,95,36,7,4,7,5,-5,-3,0,-8
74,250,69,34,9,298.0,0.67,105,37,7,4,7,5,3,2,0,-8
75,255,69,34,9,302.0,1.5,95,37,7,4,7,5,-5,-3,0,-8
76,259,71,35,11,306.0,0.67,105,38,9,5,9,6,-3,-2,1,-7
77,264,73,36,1,310.0,2.0,95,38,11,6,11,7,-3,-2,1,-6
78,267,76,38,4,314.0,0.67,105,39,14,8,2,2,3,2,1,-5
79,271,74,37,2,318.0,2.0,95,39,12,7,0,1,0,0,-1,-6
80,275,69,34,9,322.0,1.5,105,40,7,4,7,5,2,1,-1,-7
81,279,69,34,9,326.0,1.5,95,40,7,4,7,5,-5,-3,0,-7
82,283,69,34,9,330.0,1.5,105,41,7,4,7,5,3,2,0,-7
83,287,69,34,9,334.0,2.0,95,41,7,4,7,5,-5,-3,0,-7
84,290,69,34,9,338.0,2.0,105,42,7,4,7,5,2,1,0,-7
85,293,64,31,4,342.0,1.5,95,42,2,1,2,2,-3,-2,-1,-8
86,297,71,35,11,346.0,2.0,105,43,9,5,9,6,4,2,1,-7
87,300,66,32,6,350.0,1.5,95,43,4,2,4,3,-1,-1,-1,-8
88,304,69,34,9,354.0,0.67,105,44,7,4,7,5,2,1,1,-7
89,309,69,34,9,358.0,2.0,95,44,7,4,7,5,-5,-3,0,-7
90,312,69,34,9,362.0,0.67,105,45,7,4,7,5,3,2,0,-7
91,317,69,34,9,366.0,1.5,95,45,7,4,7,5,-5,-3,0,-7
92,321,71,35,11,370.0,0.67,105,46,9,5,9,6,-3,-2,1,-6
93,326,73,36,1,374.0,2.0,95,46,11,6,11,7,-3,-2,1,-5
94,329,76,38,4,378.0,0.67,105,47,14,8,2,2,3,2,1,-4
95,333,74,37,2,382.0,2.0,95,47,12,7,0,1,0,0,-1,-5
