,index,midi_note_num,diatonic_note_num,chromatic_pitch_class,onset,duration,velocity,bar_count,relative_chromatic_pitch,relative_diatonic_pitch,chromatic_scale_degree,diatonic_scale_degree,chromatic_interval,diatonic_interval,parsons_code,parsons_cumsum
0,2,69,34,9,2.0,2.0,105,0,7,4,7,5,0,0,0,0
1,6,66,32,6,6.0,2.0,95,0,4,2,4,3,-3,-2,-1,-1
2,8,74,37,2,10.0,2.0,105,1,12,7,0,1,5,3,1,0
3,10,78,39,6,14.0,1.5,95,1,16,9,4,3,9,5,1,1
4,14,71,35,11,18.0,2.0,105,2,9,5,9,6,-2,-1,-1,0
5,18,67,33,7,22.0,2.0,95,2,5,3,5,4,-4,-2,-1,-1
6,20,76,38,4,26.0,1.5,105,3,14,8,2,2,5,3,1,0
7,24,76,38,4,30.0,1.5,95,3,14,8,2,2,-2,-1,0,0
8,28,69,34,9,34.0,2.0,105,4,7,4,7,5,-2,-1,-1,-1
9,32,66,32,6,38.0,2.0,95,4,4,2,4,3,-3,-2,-1,-2
10,34,74,37,2,42.0,2.0,105,5,12,7,0,1,5,3,1,-1
11,36,78,39,6,46.0,1.5,95,5,16,9,4,3,9,5,1,0
12,40,71,35,11,50.0,2.0,105,6,9,5,9,6,-2,-1,-1,-1
13,44,79,40,7,54.0,2.0,95,6,17,10,5,4,8,5,1,0
14,46,76,38,4,58.0,2.0,105,7,14,8,2,2,3,2,-1,-1
15,48,74,37,2,62.0,2.0,95,7,12,7,0,1,0,0,-1,-2
16,51,69,34,9,66.0,2.0,105,8,7,4,7,5,2,1,-1,-3
17,55,66,32,6,70.0,2.0,95,8,4,2,4,3,-3,-2,-1,-4
18,57,74,37,2,74.0,2.0,105,9,12,7,0,1,5,3,1,-3
19,59,78,39,6,78.0,1.5,95,9,16,9,4,3,9,5,1,-2
20,63,71,35,11,82.0,2.0,105,10,9,5,9,6,-2,-1,-1,-3
21,67,67,33,7,86.0,2.0,95,10,5,3,5,4,-4,-2,-1,-4
22,69,76,38,4,90.0,1.5,105,11,14,8,2,2,5,3,1,-3
23,73,76,38,4,94.0,1.5,95,11,14,8,2,2,-2,-1,0,-3
24,77,69,34,9,98.0,2.0,105,12,7,4,7,5,-2,-1,-1,-4
25,81,66,32,6,102.0,2.0,95,12,4,2,4,3,-3,-2,-1,-5
26,83,74,37,2,106.0,2.0,105,13,12,7,0,1,5,3,1,-4
27,85,78,39,6,110.0,1.5,95,13,16,9,4,3,9,5,1,-3
28,89,71,35,11,114.0,2.0,105,14,9,5,9,6,-2,-1,-1,-4
29,93,79,40,7,118.0,2.0,95,14,17,10,5,4,8,5,1,-3
30,95,76,38,4,122.0,2.0,105,15,14,8,2,2,3,2,-1,-4
31,97,74,37,2,126.0,2.0,95,15,12,7,0,1,0,0,-1,-5
32,99,78,39,6,130.0,1.5,105,16,16,9,4,3,-1,-1,1,-4
33,103,81,41,9,134.0,1.5,95,16,19,11,7,5,-2,-1,1,-3
34,107,81,41,9,138.0,2.0,105,17,19,11,7,5,-2,-1,0,-3
35,109,74,37,2,142.0,2.0,95,17,12,7,0,1,5,3,-1,-4
36,111,76,38,4,146.0,1.5,105,18,14,8,2,2,-2,-1,1,-3
37,114,79,40,7,150.0,2.0,95,18,17,10,5,4,0,0,1,-2
38,116,74,37,2,154.0,1.5,105,19,12,7,0,1,1,1,-1,-3
39,119,78,39,6,158.0,2.0,95,19,16,9,4,3,0,0,1,-2
40,121,78,39,6,162.0,1.5,105,20,16,9,4,3,9,5,0,-2
41,125,81,41,9,166.0,1.5,95,20,19,11,7,5,-2,-1,1,-1
42,129,81,41,9,170.0,2.0,105,21,19,11,7,5,-2,-1,0,-1
43,131,74,37,2,174.0,2.0,95,21,12,7,0,1,1,1,-1,-2
44,133,76,38,4,178.0,1.5,105,22,14,8,2,2,-2,-1,1,-1
45,136,79,40,7,182.0,2.0,95,22,17,10,5,4,0,0,1,0
46,138,76,38,4,186.0,2.0,105,23,14,8,2,2,3,2,-1,-1
47,140,74,37,2,190.0,2.0,95,23,12,7,0,1,0,0,-1,-2
48,142,78,39,6,194.0,1.5,105,24,16,9,4,3,-1,-1,1,-1
49,146,81,41,9,198.0,1.5,95,24,19,11,7,5,-2,-1,1,0
50,150,81,41,9,202.0,2.0,105,25,19,11,7,5,-2,-1,0,0
51,152,74,37,2,206.0,2.0,95,25,12,7,0,1,5,3,-1,-1
52,154,76,38,4,210.0,1.5,105,26,14,8,2,2,-2,-1,1,0
53,157,79,40,7,214.0,2.0,95,26,17,10,5,4,0,0,1,1
54,159,74,37,2,218.0,1.5,105,27,12,7,0,1,1,1,-1,0
55,162,78,39,6,222.0,2.0,95,27,16,9,4,3,0,0,1,1
56,164,78,39,6,226.0,1.5,105,28,16,9,4,3,9,5,0,1
57,168,81,41,9,230.0,1.5,95,28,19,11,7,5,-2,-1,1,2
58,172,81,41,9,234.0,2.0,105,29,19,11,7,5,-2,-1,0,2
59,174,74,37,2,238.0,2.0,95,29,12,7,0,1,1,1,-1,1
60,176,76,38,4,242.0,1.5,105,30,14,8,2,2,-2,-1,1,2
61,179,79,40,7,246.0,2.0,95,30,17,10,5,4,0,0,1,3
62,181,76,38,4,250.0,2.0,105,31,14,8,2,2,3,2,-1,2
63,183,74,37,2,254.0,2.0,95,31,12,7,0,1,0,0,-1,1
64,185,69,34,9,258.0,1.5,105,32,7,4,7,5,0,0,-1,0
65,189,69,34,9,262.0,1.5,95,32,7,4,7,5,-5,-3,0,0
66,193,69,34,9,266.0,1.5,105,33,7,4,7,5,3,2,0,0
67,197,69,34,9,270.0,4.0,95,33,7,4,7,5,-5,-3,0,0
68,198,69,34,9,274.0,1.5,105,34,7,4,7,5,0,0,0,0
69,201,64,31,4,278.0,2.0,95,34,2,1,2,2,0,0,-1,-1
70,203,71,35,11,282.0,1.5,105,35,9,5,9,6,4,2,1,0
71,206,66,32,6,286.0,2.0,95,35,4,2,4,3,0,0,-1,-1
72,208,69,34,9,290.0,1.5,105,36,7,4,7,5,2,1,1,0
73,212,69,34,9,294.0,1.5,95,36,7,4,7,5,-5,-3,0,0
74,216,69,34,9,298.0,1.5,105,37,7,4,7,5,3,2,0,0
75,220,69,34,9,302.0,4.0,95,37,7,4,7,5,-5,-3,0,0
76,221,71,35,11,306.0,1.5,105,38,9,5,9,6,2,1,1,1
77,224,73,36,1,310.0,1.5,95,38,11,6,11,7,-1,-1,1,2
78,228,76,38,4,314.0,2.0,105,39,14,8,2,2,-2,-1,1,3
79,230,74,37,2,318.0,2.0,95,39,12,7,0,1,0,0,-1,2
80,232,69,34,9,322.0,1.5,105,40,7,4,7,5,0,0,-1,1
81,236,69,34,9,326.0,1.5,95,40,7,4,7,5,-5,-3,0,1
82,240,69,34,9,330.0,1.5,105,41,7,4,7,5,3,2,0,1
83,244,69,34,9,334.0,4.0,95,41,7,4,7,5,-5,-3,0,1
84,245,69,34,9,338.0,1.5,105,42,7,4,7,5,0,0,0,1
85,248,64,31,4,342.0,2.0,95,42,2,1,2,2,0,0,-1,0
86,250,71,35,11,346.0,1.5,105,43,9,5,9,6,4,2,1,1
87,253,66,32,6,350.0,2.0,95,43,4,2,4,3,0,0,-1,0
88,255,69,34,9,354.0,1.5,105,44,7,4,7,5,2,1,1,1
89,259,69,34,9,358.0,1.5,95,44,7,4,7,5,-5,-3,0,1
90,263,69,34,9,362.0,1.5,105,45,7,4,7,5,3,2,0,1
91,267,69,34,9,366.0,4.0,95,45,7,4,7,5,-5,-3,0,1
92,268,71,35,11,370.0,1.5,105,46,9,5,9,6,2,1,1,2
93,271,73,36,1,374.0,1.5,95,46,11,6,11,7,-1,-1,1,3
94,275,76,38,4,378.0,2.0,105,47,14,8,2,2,-2,-1,1,4
95,277,74,37,2,382.0,2.0,95,47,12,7,0,1,0,0,-1,3
