,index,midi_note_num,diatonic_note_num,chromatic_pitch_class,onset,duration,velocity,bar_count,relative_chromatic_pitch,relative_diatonic_pitch,chromatic_scale_degree,diatonic_scale_degree,chromatic_interval,diatonic_interval,parsons_code,parsons_cumsum
0,0,66,32,6,0.0,2.0,105,0,-3,-2,9,6,0,0,0,0
1,2,71,35,11,3.0,1.0,95,0,2,1,2,2,0,0,1,1
2,5,71,35,11,6.0,1.0,95,0,2,1,2,2,0,0,0,1
3,8,66,32,6,9.0,2.0,105,1,-3,-2,9,6,-5,-3,-1,0
4,10,71,35,11,12.0,1.0,95,1,2,1,2,2,0,0,1,1
5,13,74,37,2,15.0,2.0,95,1,5,3,5,4,3,2,1,2
6,15,66,32,6,18.0,2.0,105,2,-3,-2,9,6,-7,-4,-1,1
7,17,71,35,11,21.0,1.0,95,2,2,1,2,2,0,0,1,2
8,20,71,35,11,24.0,1.0,95,2,2,1,2,2,0,0,0,2
9,23,74,37,2,27.0,2.0,105,3,5,3,5,4,3,2,1,3
10,25,71,35,11,30.0,2.0,95,3,2,1,2,2,-2,-1,-1,2
11,27,66,32,6,33.0,2.0,95,3,-3,-2,9,6,-3,-2,-1,1
12,29,66,32,6,36.0,2.0,105,4,-3,-2,9,6,2,1,0,1
13,31,71,35,11,39.0,1.0,95,4,2,1,2,2,0,0,1,2
14,34,71,35,11,42.0,1.0,95,4,2,1,2,2,0,0,0,2
15,37,66,32,6,45.0,1.0,105,5,-3,-2,9,6,-5,-3,-1,1
16,40,71,35,11,48.0,1.0,95,5,2,1,2,2,0,0,1,2
17,43,74,37,2,51.0,1.0,95,5,5,3,5,4,3,2,1,3
18,46,66,32,6,54.0,2.0,105,6,-3,-2,9,6,-7,-4,-1,2
19,48,71,35,11,57.0,1.0,95,6,2,1,2,2,0,0,1,3
20,51,71,35,11,60.0,1.0,95,6,2,1,2,2,0,0,0,3
21,54,74,37,2,63.0,2.0,105,7,5,3,5,4,3,2,1,4
22,56,71,35,11,66.0,2.0,95,7,2,1,2,2,-2,-1,-1,3
23,58,71,35,11,69.0,3.0,95,7,2,1,2,2,2,1,0,3
24,59,66,32,6,72.0,2.0,105,8,-3,-2,9,6,-5,-3,-1,2
25,61,71,35,11,75.0,1.0,95,8,2,1,2,2,0,0,1,3
26,64,71,35,11,78.0,1.0,95,8,2,1,2,2,0,0,0,3
27,67,66,32,6,81.0,2.0,105,9,-3,-2,9,6,-5,-3,-1,2
28,69,71,35,11,84.0,1.0,95,9,2,1,2,2,0,0,1,3
29,72,74,37,2,87.0,2.0,95,9,5,3,5,4,3,2,1,4
30,74,66,32,6,90.0,2.0,105,10,-3,-2,9,6,-7,-4,-1,3
31,76,71,35,11,93.0,1.0,95,10,2,1,2,2,0,0,1,4
32,79,71,35,11,96.0,1.0,95,10,2,1,2,2,0,0,0,4
33,82,74,37,2,99.0,2.0,105,11,5,3,5,4,3,2,1,5
34,84,71,35,11,102.0,2.0,95,11,2,1,2,2,-2,-1,-1,4
35,86,66,32,6,105.0,2.0,95,11,-3,-2,9,6,-3,-2,-1,3
36,88,66,32,6,108.0,2.0,105,12,-3,-2,9,6,2,1,0,3
37,90,71,35,11,111.0,1.0,95,12,2,1,2,2,0,0,1,4
38,93,71,35,11,114.0,1.0,95,12,2,1,2,2,0,0,0,4
39,96,66,32,6,117.0,1.0,105,13,-3,-2,9,6,-5,-3,-1,3
40,99,71,35,11,120.0,1.0,95,13,2,1,2,2,0,0,1,4
41,102,74,37,2,123.0,1.0,95,13,5,3,5,4,3,2,1,5
42,105,66,32,6,126.0,2.0,105,14,-3,-2,9,6,-7,-4,-1,4
43,107,71,35,11,129.0,1.0,95,14,2,1,2,2,0,0,1,5
44,110,71,35,11,132.0,1.0,95,14,2,1,2,2,0,0,0,5
45,113,74,37,2,135.0,2.0,105,15,5,3,5,4,3,2,1,6
46,115,71,35,11,138.0,2.0,95,15,2,1,2,2,-2,-1,-1,5
47,117,71,35,11,141.0,1.0,95,15,2,1,2,2,2,1,0,5
48,120,78,39,6,144.0,2.0,105,16,9,5,9,6,2,1,1,6
49,122,78,39,6,147.0,2.0,95,16,9,5,9,6,-5,-3,0,6
50,124,81,41,9,150.0,1.0,95,16,12,7,0,1,-2,-1,1,7
51,127,76,38,4,153.0,2.0,105,17,7,4,7,5,-2,-1,-1,6
52,129,76,38,4,156.0,2.0,95,17,7,4,7,5,-5,-3,0,6
53,131,80,40,8,159.0,1.0,95,17,11,6,11,7,-1,-1,1,7
54,134,78,39,6,162.0,2.0,105,18,9,5,9,6,2,1,-1,6
55,136,78,39,6,165.0,2.0,95,18,9,5,9,6,-5,-3,0,6
56,138,81,41,9,168.0,1.0,95,18,12,7,0,1,-2,-1,1,7
57,141,86,44,2,171.0,2.0,105,19,17,10,5,4,8,5,1,8
58,143,83,42,11,174.0,2.0,95,19,14,8,2,2,-2,-1,-1,7
59,145,78,39,6,177.0,2.0,95,19,9,5,9,6,-3,-2,-1,6
60,147,78,39,6,180.0,2.0,105,20,9,5,9,6,2,1,0,6
61,149,78,39,6,183.0,2.0,95,20,9,5,9,6,-5,-3,0,6
62,151,81,41,9,186.0,1.0,95,20,12,7,0,1,-2,-1,1,7
63,154,76,38,4,189.0,2.0,105,21,7,4,7,5,-2,-1,-1,6
64,156,76,38,4,192.0,2.0,95,21,7,4,7,5,-5,-3,0,6
65,158,80,40,8,195.0,1.0,95,21,11,6,11,7,-1,-1,1,7
66,161,78,39,6,198.0,2.0,105,22,9,5,9,6,2,1,-1,6
67,163,78,39,6,201.0,2.0,95,22,9,5,9,6,-5,-3,0,6
68,165,81,41,9,204.0,1.0,95,22,12,7,0,1,-2,-1,1,7
69,168,86,44,2,207.0,2.0,105,23,17,10,5,4,8,5,1,8
70,170,83,42,11,210.0,2.0,95,23,14,8,2,2,-2,-1,-1,7
71,172,78,39,6,213.0,2.0,95,23,9,5,9,6,-3,-2,-1,6
72,174,78,39,6,216.0,2.0,105,24,9,5,9,6,2,1,0,6
73,176,78,39,6,219.0,2.0,95,24,9,5,9,6,-5,-3,0,6
74,178,81,41,9,222.0,1.0,95,24,12,7,0,1,-2,-1,1,7
75,181,76,38,4,225.0,2.0,105,25,7,4,7,5,-2,-1,-1,6
76,183,76,38,4,228.0,2.0,95,25,7,4,7,5,-5,-3,0,6
77,185,80,40,8,231.0,1.0,95,25,11,6,11,7,-1,-1,1,7
78,188,78,39,6,234.0,2.0,105,26,9,5,9,6,2,1,-1,6
79,190,78,39,6,237.0,2.0,95,26,9,5,9,6,-5,-3,0,6
80,192,81,41,9,240.0,1.0,95,26,12,7,0,1,-2,-1,1,7
81,195,86,44,2,243.0,2.0,105,27,17,10,5,4,8,5,1,8
82,197,83,42,11,246.0,2.0,95,27,14,8,2,2,-2,-1,-1,7
83,199,78,39,6,249.0,2.0,95,27,9,5,9,6,-3,-2,-1,6
84,201,78,39,6,252.0,2.0,105,28,9,5,9,6,2,1,0,6
85,203,78,39,6,255.0,2.0,95,28,9,5,9,6,-5,-3,0,6
86,205,81,41,9,258.0,1.0,95,28,12,7,0,1,-2,-1,1,7
87,208,76,38,4,261.0,2.0,105,29,7,4,7,5,-2,-1,-1,6
88,210,76,38,4,264.0,2.0,95,29,7,4,7,5,-5,-3,0,6
89,212,80,40,8,267.0,1.0,95,29,11,6,11,7,-1,-1,1,7
90,215,78,39,6,270.0,2.0,105,30,9,5,9,6,2,1,-1,6
91,217,78,39,6,273.0,2.0,95,30,9,5,9,6,-5,-3,0,6
92,219,81,41,9,276.0,1.0,95,30,12,7,0,1,-2,-1,1,7
93,222,86,44,2,279.0,2.0,105,31,17,10,5,4,8,5,1,8
94,224,83,42,11,282.0,2.0,95,31,14,8,2,2,-2,-1,-1,7
95,226,83,42,11,285.0,3.0,95,31,14,8,2,2,2,1,0,7
