,index,midi_note_num,diatonic_note_num,chromatic_pitch_class,onset,duration,velocity,bar_count,relative_chromatic_pitch,relative_diatonic_pitch,chromatic_scale_degree,diatonic_scale_degree,chromatic_interval,diatonic_interval,parsons_code,parsons_cumsum
0,2,67,33,7,2.0,1.33,105,0,0,0,0,1,0,0,0,0
1,6,71,35,11,6.0,1.33,95,0,4,2,4,3,4,2,1,1
2,10,74,37,2,10.0,1.33,105,1,7,4,7,5,3,2,1,2
3,14,67,33,7,14.0,1.33,95,1,0,0,0,1,-7,-4,-1,1
4,18,69,34,9,18.0,0.67,105,2,2,1,2,2,2,1,1,2
5,23,62,30,2,22.0,1.33,95,2,-5,-3,7,5,-7,-4,-1,1
6,27,78,39,6,26.0,1.33,105,3,11,6,11,7,9,5,1,2
7,31,76,38,4,30.0,1.33,95,3,9,5,9,6,3,2,-1,1
8,35,67,33,7,34.0,1.33,105,4,0,0,0,1,-2,-1,-1,0
9,39,71,35,11,38.0,1.33,95,4,4,2,4,3,4,2,1,1
10,43,74,37,2,42.0,1.33,105,5,7,4,7,5,3,2,1,2
11,47,67,33,7,46.0,1.33,95,5,0,0,0,1,-7,-4,-1,1
12,51,64,31,4,50.0,1.33,105,6,-3,-2,9,6,-3,-2,-1,0
13,55,71,35,11,54.0,1.33,95,6,4,2,4,3,2,1,1,1
14,59,76,38,4,58.0,1.33,105,7,9,5,9,6,2,1,1,2
15,63,67,33,7,62.0,2.0,95,7,0,0,0,1,-2,-1,-1,1
16,66,67,33,7,66.0,1.33,105,8,0,0,0,1,-2,-1,0,1
17,70,71,35,11,70.0,1.33,95,8,4,2,4,3,4,2,1,2
18,74,74,37,2,74.0,1.33,105,9,7,4,7,5,3,2,1,3
19,78,67,33,7,78.0,1.33,95,9,0,0,0,1,-7,-4,-1,2
20,82,69,34,9,82.0,0.67,105,10,2,1,2,2,2,1,1,3
21,87,62,30,2,86.0,1.33,95,10,-5,-3,7,5,-7,-4,-1,2
22,91,78,39,6,90.0,1.33,105,11,11,6,11,7,9,5,1,3
23,95,76,38,4,94.0,1.33,95,11,9,5,9,6,3,2,-1,2
24,99,67,33,7,98.0,1.33,105,12,0,0,0,1,-2,-1,-1,1
25,103,71,35,11,102.0,1.33,95,12,4,2,4,3,4,2,1,2
26,107,74,37,2,106.0,1.33,105,13,7,4,7,5,3,2,1,3
27,111,67,33,7,110.0,1.33,95,13,0,0,0,1,-7,-4,-1,2
28,115,64,31,4,114.0,1.33,105,14,-3,-2,9,6,-3,-2,-1,1
29,119,71,35,11,118.0,1.33,95,14,4,2,4,3,2,1,1,2
30,123,76,38,4,122.0,1.33,105,15,9,5,9,6,2,1,1,3
31,127,67,33,7,126.0,2.0,95,15,0,0,0,1,-2,-1,-1,2
32,130,66,32,6,130.0,1.33,105,16,-1,-1,11,7,-1,-1,-1,1
33,134,66,32,6,134.0,1.33,95,16,-1,-1,11,7,-1,-1,0,1
34,138,62,30,2,138.0,2.0,105,17,-5,-3,7,5,-4,-2,-1,0
35,141,74,37,2,142.0,1.33,95,17,7,4,7,5,5,3,1,1
36,145,71,35,11,146.0,1.33,105,18,4,2,4,3,2,1,-1,0
37,149,71,35,11,150.0,1.33,95,18,4,2,4,3,-3,-2,0,0
38,153,71,35,11,154.0,1.33,105,19,4,2,4,3,-3,-2,0,0
39,157,79,40,7,158.0,1.33,95,19,12,7,0,1,5,3,1,1
40,161,73,36,1,162.0,1.33,105,20,6,3,6,4,-1,-1,-1,0
41,165,73,36,1,166.0,1.33,95,20,6,3,6,4,-3,-2,0,0
42,169,73,36,1,170.0,1.33,105,21,6,3,6,4,-3,-2,0,0
43,173,81,41,9,174.0,1.33,95,21,14,8,2,2,5,3,1,1
44,177,74,37,2,178.0,1.33,105,22,7,4,7,5,5,3,-1,0
45,181,78,39,6,182.0,1.33,95,22,11,6,11,7,2,1,1,1
46,185,74,37,2,186.0,2.0,105,23,7,4,7,5,-2,-1,-1,0
47,188,74,37,2,190.0,2.0,95,23,7,4,7,5,1,1,0,0
48,191,66,32,6,194.0,1.33,105,24,-1,-1,11,7,-1,-1,-1,-1
49,195,66,32,6,198.0,1.33,95,24,-1,-1,11,7,-1,-1,0,-1
50,199,62,30,2,202.0,2.0,105,25,-5,-3,7,5,-4,-2,-1,-2
51,202,74,37,2,206.0,1.33,95,25,7,4,7,5,5,3,1,-1
52,206,71,35,11,210.0,1.33,105,26,4,2,4,3,2,1,-1,-2
53,210,71,35,11,214.0,1.33,95,26,4,2,4,3,-3,-2,0,-2
54,214,71,35,11,218.0,1.33,105,27,4,2,4,3,-3,-2,0,-2
55,218,79,40,7,222.0,1.33,95,27,12,7,0,1,5,3,1,-1
56,222,73,36,1,226.0,1.33,105,28,6,3,6,4,-1,-1,-1,-2
57,226,73,36,1,230.0,1.33,95,28,6,3,6,4,-3,-2,0,-2
58,230,73,36,1,234.0,1.33,105,29,6,3,6,4,-3,-2,0,-2
59,234,81,41,9,238.0,1.33,95,29,14,8,2,2,5,3,1,-1
60,238,74,37,2,242.0,1.33,105,30,7,4,7,5,5,3,-1,-2
61,242,78,39,6,246.0,1.33,95,30,11,6,11,7,2,1,1,-1
62,246,74,37,2,250.0,2.0,105,31,7,4,7,5,-2,-1,-1,-2
63,249,74,37,2,254.0,2.0,95,31,7,4,7,5,1,1,0,-2
64,253,79,40,7,258.0,2.0,105,32,12,7,0,1,1,1,1,-1
65,256,76,38,4,262.0,1.33,95,32,9,5,9,6,-3,-2,-1,-2
66,260,67,33,7,266.0,1.33,105,33,0,0,0,1,1,1,-1,-3
67,264,62,30,2,270.0,2.0,95,33,-5,-3,7,5,-5,-3,-1,-4
68,267,64,31,4,274.0,1.33,105,34,-3,-2,9,6,-2,-1,1,-3
69,271,62,30,2,278.0,1.33,95,34,-5,-3,7,5,-10,-6,-1,-4
70,275,69,34,9,282.0,0.67,105,35,2,1,2,2,-2,-1,1,-3
71,280,67,33,7,286.0,1.33,95,35,0,0,0,1,-2,-1,-1,-4
72,284,62,30,2,290.0,1.33,105,36,-5,-3,7,5,-10,-6,-1,-5
73,288,64,31,4,294.0,1.33,95,36,-3,-2,9,6,-2,-1,1,-4
74,292,67,33,7,298.0,1.33,105,37,0,0,0,1,1,1,1,-3
75,296,62,30,2,302.0,2.0,95,37,-5,-3,7,5,-5,-3,-1,-4
76,299,64,31,4,306.0,1.33,105,38,-3,-2,9,6,-2,-1,1,-3
77,303,74,37,2,310.0,1.33,95,38,7,4,7,5,-2,-1,1,-2
78,307,69,34,9,314.0,1.33,105,39,2,1,2,2,-2,-1,-1,-3
79,311,67,33,7,318.0,2.0,95,39,0,0,0,1,-2,-1,-1,-4
80,315,79,40,7,322.0,2.0,105,40,12,7,0,1,1,1,1,-3
81,318,76,38,4,326.0,1.33,95,40,9,5,9,6,-3,-2,-1,-4
82,322,67,33,7,330.0,1.33,105,41,0,0,0,1,1,1,-1,-5
83,326,62,30,2,334.0,2.0,95,41,-5,-3,7,5,-5,-3,-1,-6
84,329,64,31,4,338.0,1.33,105,42,-3,-2,9,6,-2,-1,1,-5
85,333,62,30,2,342.0,1.33,95,42,-5,-3,7,5,-10,-6,-1,-6
86,337,69,34,9,346.0,0.67,105,43,2,1,2,2,-2,-1,1,-5
87,342,67,33,7,350.0,1.33,95,43,0,0,0,1,-2,-1,-1,-6
88,346,62,30,2,354.0,1.33,105,44,-5,-3,7,5,-10,-6,-1,-7
89,350,64,31,4,358.0,1.33,95,44,-3,-2,9,6,-2,-1,1,-6
90,354,67,33,7,362.0,1.33,105,45,0,0,0,1,1,1,1,-5
91,358,62,30,2,366.0,2.0,95,45,-5,-3,7,5,-5,-3,-1,-6
92,361,64,31,4,370.0,1.33,105,46,-3,-2,9,6,-2,-1,1,-5
93,365,74,37,2,374.0,1.33,95,46,7,4,7,5,-2,-1,1,-4
94,369,69,34,9,378.0,1.33,105,47,2,1,2,2,-2,-1,-1,-5
95,373,67,33,7,382.0,2.0,95,47,0,0,0,1,-2,-1,-1,-6
