,index,midi_note_num,diatonic_note_num,chromatic_pitch_class,onset,duration,velocity,bar_count,relative_chromatic_pitch,relative_diatonic_pitch,chromatic_scale_degree,diatonic_scale_degree,chromatic_interval,diatonic_interval,parsons_code,parsons_cumsum
0,0,77,39,5,0.0,2.0,105,0,12,7,0,1,0,0,0,0
1,2,72,36,0,3.0,1.0,95,0,7,4,7,5,-2,-1,-1,-1
2,5,72,36,0,6.0,1.0,95,0,7,4,7,5,7,4,0,-1
3,8,77,39,5,9.0,2.0,105,1,12,7,0,1,12,7,1,0
4,10,72,36,0,12.0,1.5,95,1,7,4,7,5,-2,-1,-1,-1
5,13,70,35,10,15.0,1.0,95,1,5,3,5,4,5,3,-1,-2
6,16,77,39,5,18.0,2.0,105,2,12,7,0,1,10,6,1,-1
7,18,72,36,0,21.0,1.0,95,2,7,4,7,5,-2,-1,-1,-2
8,21,72,36,0,24.0,1.0,95,2,7,4,7,5,7,4,0,-2
9,24,67,33,7,27.0,1.0,105,3,2,1,2,2,2,1,-1,-3
10,27,69,34,9,30.0,1.0,95,3,4,2,4,3,-1,-1,1,-2
11,30,64,31,4,33.0,1.0,95,3,-1,-1,11,7,-1,-1,-1,-3
12,33,77,39,5,36.0,2.0,105,4,12,7,0,1,17,10,1,-2
13,35,72,36,0,39.0,1.0,95,4,7,4,7,5,-2,-1,-1,-3
14,38,72,36,0,42.0,1.0,95,4,7,4,7,5,7,4,0,-3
15,41,77,39,5,45.0,2.0,105,5,12,7,0,1,12,7,1,-2
16,43,72,36,0,48.0,1.5,95,5,7,4,7,5,-2,-1,-1,-3
17,46,70,35,10,51.0,1.0,95,5,5,3,5,4,5,3,-1,-4
18,49,77,39,5,54.0,2.0,105,6,12,7,0,1,10,6,1,-3
19,51,72,36,0,57.0,1.0,95,6,7,4,7,5,-2,-1,-1,-4
20,54,72,36,0,60.0,1.0,95,6,7,4,7,5,7,4,0,-4
21,57,67,33,7,63.0,1.0,105,7,2,1,2,2,2,1,-1,-5
22,60,69,34,9,66.0,1.0,95,7,4,2,4,3,-1,-1,1,-4
23,63,64,31,4,69.0,1.0,95,7,-1,-1,11,7,-1,-1,-1,-5
24,66,77,39,5,72.0,2.0,105,8,12,7,0,1,17,10,1,-4
25,68,81,41,9,75.0,1.0,95,8,16,9,4,3,0,0,1,-3
26,71,81,41,9,78.0,1.0,95,8,16,9,4,3,0,0,0,-3
27,74,77,39,5,81.0,2.0,105,9,12,7,0,1,-4,-2,-1,-4
28,76,81,41,9,84.0,1.0,95,9,16,9,4,3,0,0,1,-3
29,79,79,40,7,87.0,1.0,95,9,14,8,2,2,-2,-1,-1,-4
30,82,77,39,5,90.0,2.0,105,10,12,7,0,1,5,3,-1,-5
31,84,81,41,9,93.0,1.0,95,10,16,9,4,3,0,0,1,-4
32,87,81,41,9,96.0,1.0,95,10,16,9,4,3,0,0,0,-4
33,90,79,40,7,99.0,1.0,105,11,14,8,2,2,-2,-1,-1,-5
34,93,81,41,9,102.0,1.0,95,11,16,9,4,3,-1,-1,1,-4
35,96,76,38,4,105.0,1.0,95,11,11,6,11,7,-1,-1,-1,-5
36,99,77,39,5,108.0,2.0,105,12,12,7,0,1,5,3,1,-4
37,101,81,41,9,111.0,1.0,95,12,16,9,4,3,0,0,1,-3
38,104,81,41,9,114.0,1.0,95,12,16,9,4,3,0,0,0,-3
39,107,77,39,5,117.0,2.0,105,13,12,7,0,1,-4,-2,-1,-4
40,109,81,41,9,120.0,1.0,95,13,16,9,4,3,0,0,1,-3
41,112,79,40,7,123.0,1.0,95,13,14,8,2,2,-2,-1,-1,-4
42,115,77,39,5,126.0,2.0,105,14,12,7,0,1,5,3,-1,-5
43,117,81,41,9,129.0,1.0,95,14,16,9,4,3,0,0,1,-4
44,120,81,41,9,132.0,1.0,95,14,16,9,4,3,0,0,0,-4
45,123,79,40,7,135.0,1.0,105,15,14,8,2,2,-2,-1,-1,-5
46,126,81,41,9,138.0,1.0,95,15,16,9,4,3,-1,-1,1,-4
47,129,76,38,4,141.0,1.0,95,15,11,6,11,7,-1,-1,-1,-5
48,132,79,40,7,144.0,2.0,105,16,14,8,2,2,7,4,1,-4
49,134,74,37,2,147.0,1.0,95,16,9,5,9,6,-2,-1,-1,-5
50,137,74,37,2,150.0,1.0,95,16,9,5,9,6,7,4,0,-5
51,140,79,40,7,153.0,2.0,105,17,14,8,2,2,12,7,1,-4
52,142,74,37,2,156.0,1.0,95,17,9,5,9,6,-2,-1,-1,-5
53,146,72,36,0,159.0,2.0,95,17,7,4,7,5,5,3,-1,-6
54,148,79,40,7,162.0,2.0,105,18,14,8,2,2,10,6,1,-5
55,150,74,37,2,165.0,1.0,95,18,9,5,9,6,-2,-1,-1,-6
56,153,74,37,2,168.0,1.0,95,18,9,5,9,6,7,4,0,-6
57,156,69,34,9,171.0,1.5,105,19,4,2,4,3,2,1,-1,-7
58,159,71,35,11,174.0,1.0,95,19,6,3,6,4,-1,-1,1,-6
59,162,66,32,6,177.0,1.0,95,19,1,0,1,1,-1,-1,-1,-7
60,165,79,40,7,180.0,2.0,105,20,14,8,2,2,17,10,1,-6
61,167,74,37,2,183.0,1.0,95,20,9,5,9,6,-2,-1,-1,-7
62,170,74,37,2,186.0,1.0,95,20,9,5,9,6,7,4,0,-7
63,173,79,40,7,189.0,2.0,105,21,14,8,2,2,12,7,1,-6
64,175,74,37,2,192.0,1.0,95,21,9,5,9,6,-2,-1,-1,-7
65,179,72,36,0,195.0,2.0,95,21,7,4,7,5,5,3,-1,-8
66,181,79,40,7,198.0,2.0,105,22,14,8,2,2,10,6,1,-7
67,183,74,37,2,201.0,1.0,95,22,9,5,9,6,-2,-1,-1,-8
68,186,74,37,2,204.0,1.0,95,22,9,5,9,6,7,4,0,-8
69,189,69,34,9,207.0,1.5,105,23,4,2,4,3,2,1,-1,-9
70,192,71,35,11,210.0,1.0,95,23,6,3,6,4,-1,-1,1,-8
71,195,66,32,6,213.0,1.0,95,23,1,0,1,1,-1,-1,-1,-9
72,198,79,40,7,216.0,2.0,105,24,14,8,2,2,17,10,1,-8
73,200,83,42,11,219.0,1.0,95,24,18,10,6,4,0,0,1,-7
74,203,83,42,11,222.0,1.0,95,24,18,10,6,4,0,0,0,-7
75,206,79,40,7,225.0,2.0,105,25,14,8,2,2,-4,-2,-1,-8
76,208,83,42,11,228.0,1.0,95,25,18,10,6,4,0,0,1,-7
77,211,81,41,9,231.0,1.0,95,25,16,9,4,3,-2,-1,-1,-8
78,214,79,40,7,234.0,2.0,105,26,14,8,2,2,5,3,-1,-9
79,216,83,42,11,237.0,1.0,95,26,18,10,6,4,0,0,1,-8
80,220,83,42,11,240.0,1.0,95,26,18,10,6,4,0,0,0,-8
81,223,81,41,9,243.0,1.0,105,27,16,9,4,3,-2,-1,-1,-9
82,227,83,42,11,246.0,1.0,95,27,18,10,6,4,-1,-1,1,-8
83,230,78,39,6,249.0,1.0,95,27,13,7,1,1,-1,-1,-1,-9
84,233,79,40,7,252.0,2.0,105,28,14,8,2,2,5,3,1,-8
85,235,83,42,11,255.0,1.0,95,28,18,10,6,4,0,0,1,-7
86,238,83,42,11,258.0,1.0,95,28,18,10,6,4,0,0,0,-7
87,241,79,40,7,261.0,2.0,105,29,14,8,2,2,-4,-2,-1,-8
88,243,83,42,11,264.0,1.0,95,29,18,10,6,4,0,0,1,-7
89,246,81,41,9,267.0,1.0,95,29,16,9,4,3,-2,-1,-1,-8
90,249,79,40,7,270.0,2.0,105,30,14,8,2,2,5,3,-1,-9
91,251,83,42,11,273.0,1.0,95,30,18,10,6,4,0,0,1,-8
92,255,83,42,11,276.0,1.0,95,30,18,10,6,4,0,0,0,-8
93,258,81,41,9,279.0,1.0,105,31,16,9,4,3,-2,-1,-1,-9
94,262,83,42,11,282.0,1.0,95,31,18,10,6,4,-1,-1,1,-8
95,265,78,39,6,285.0,1.0,95,31,13,7,1,1,-1,-1,-1,-9
96,268,79,40,7,288.0,2.0,105,32,14,8,2,2,5,3,1,-8
97,270,74,37,2,291.0,1.0,95,32,9,5,9,6,-2,-1,-1,-9
98,273,74,37,2,294.0,1.0,95,32,9,5,9,6,7,4,0,-9
99,276,79,40,7,297.0,2.0,105,33,14,8,2,2,12,7,1,-8
100,278,74,37,2,300.0,1.0,95,33,9,5,9,6,-2,-1,-1,-9
101,281,72,36,0,303.0,2.0,95,33,7,4,7,5,5,3,-1,-10
102,283,79,40,7,306.0,2.0,105,34,14,8,2,2,10,6,1,-9
103,285,74,37,2,309.0,1.0,95,34,9,5,9,6,-2,-1,-1,-10
104,288,74,37,2,312.0,2.0,95,34,9,5,9,6,7,4,0,-10
105,290,69,34,9,315.0,1.5,105,35,4,2,4,3,2,1,-1,-11
106,293,71,35,11,318.0,1.0,95,35,6,3,6,4,-1,-1,1,-10
107,297,66,32,6,321.0,1.0,95,35,1,0,1,1,-1,-1,-1,-11
108,300,79,40,7,324.0,2.0,105,36,14,8,2,2,17,10,1,-10
109,302,74,37,2,327.0,1.0,95,36,9,5,9,6,-2,-1,-1,-11
110,305,74,37,2,330.0,1.0,95,36,9,5,9,6,7,4,0,-11
111,308,79,40,7,333.0,2.0,105,37,14,8,2,2,12,7,1,-10
112,310,74,37,2,336.0,1.0,95,37,9,5,9,6,-2,-1,-1,-11
113,313,72,36,0,339.0,2.0,95,37,7,4,7,5,5,3,-1,-12
114,315,79,40,7,342.0,2.0,105,38,14,8,2,2,10,6,1,-11
115,317,74,37,2,345.0,1.0,95,38,9,5,9,6,-2,-1,-1,-12
116,320,74,37,2,348.0,2.0,95,38,9,5,9,6,7,4,0,-12
117,322,69,34,9,351.0,1.5,105,39,4,2,4,3,2,1,-1,-13
118,325,71,35,11,354.0,1.0,95,39,6,3,6,4,-1,-1,1,-12
119,329,66,32,6,357.0,1.0,95,39,1,0,1,1,-1,-1,-1,-13
120,332,67,33,7,360.0,2.0,105,40,2,1,2,2,5,3,1,-12
121,334,71,35,11,363.0,1.0,95,40,6,3,6,4,0,0,1,-11
122,337,71,35,11,366.0,1.0,95,40,6,3,6,4,0,0,0,-11
123,340,67,33,7,369.0,1.0,105,41,2,1,2,2,-4,-2,-1,-12
124,343,71,35,11,372.0,1.0,95,41,6,3,6,4,0,0,1,-11
125,346,69,34,9,375.0,1.5,95,41,4,2,4,3,-2,-1,-1,-12
126,349,67,33,7,378.0,2.0,105,42,2,1,2,2,5,3,-1,-13
127,351,71,35,11,381.0,1.0,95,42,6,3,6,4,0,0,1,-12
128,354,71,35,11,384.0,2.0,95,42,6,3,6,4,0,0,0,-12
129,356,69,34,9,387.0,1.0,105,43,4,2,4,3,2,1,-1,-13
130,360,71,35,11,390.0,1.0,95,43,6,3,6,4,-1,-1,1,-12
131,363,66,32,6,393.0,1.0,95,43,1,0,1,1,-1,-1,-1,-13
132,366,67,33,7,396.0,2.0,105,44,2,1,2,2,5,3,1,-12
133,368,71,35,11,399.0,1.0,95,44,6,3,6,4,0,0,1,-11
134,371,71,35,11,402.0,1.0,95,44,6,3,6,4,0,0,0,-11
135,374,67,33,7,405.0,1.0,105,45,2,1,2,2,-4,-2,-1,-12
136,377,71,35,11,408.0,1.0,95,45,6,3,6,4,0,0,1,-11
137,380,69,34,9,411.0,1.5,95,45,4,2,4,3,-2,-1,-1,-12
138,383,67,33,7,414.0,2.0,105,46,2,1,2,2,5,3,-1,-13
139,385,71,35,11,417.0,1.0,95,46,6,3,6,4,0,0,1,-12
140,388,71,35,11,420.0,2.0,95,46,6,3,6,4,0,0,0,-12
141,390,69,34,9,423.0,1.0,105,47,4,2,4,3,2,1,-1,-13
142,394,71,35,11,426.0,1.0,95,47,6,3,6,4,-1,-1,1,-12
143,397,66,32,6,429.0,1.0,95,47,1,0,1,1,-1,-1,-1,-13
