,index,midi_note_num,diatonic_note_num,chromatic_pitch_class,onset,duration,velocity,bar_count,relative_chromatic_pitch,relative_diatonic_pitch,chromatic_scale_degree,diatonic_scale_degree,chromatic_interval,diatonic_interval,parsons_code,parsons_cumsum
0,1,76,38,4,1.0,1.0,105,0,9,5,9,6,0,0,0,0
1,5,69,34,9,5.0,3.0,95,0,2,1,2,2,-10,-6,-1,-1
2,7,76,38,4,9.0,1.0,105,1,9,5,9,6,-3,-2,1,0
3,11,79,40,7,13.0,2.0,95,1,12,7,0,1,1,1,1,1
4,14,76,38,4,17.0,2.0,105,2,9,5,9,6,-3,-2,-1,0
5,17,69,34,9,21.0,1.0,95,2,2,1,2,2,-7,-4,-1,-1
6,21,76,38,4,25.0,1.0,105,3,9,5,9,6,-3,-2,1,0
7,25,71,35,11,29.0,1.0,95,3,4,2,4,3,-8,-5,-1,-1
8,29,76,38,4,33.0,1.0,105,4,9,5,9,6,5,3,1,0
9,33,69,34,9,37.0,2.0,95,4,2,1,2,2,-10,-6,-1,-1
10,36,76,38,4,41.0,1.0,105,5,9,5,9,6,-2,-1,1,0
11,40,79,40,7,45.0,2.0,95,5,12,7,0,1,1,1,1,1
12,43,81,41,9,49.0,2.0,105,6,14,8,2,2,2,1,1,2
13,46,74,37,2,53.0,1.0,95,6,7,4,7,5,-2,-1,-1,1
14,50,76,38,4,57.0,1.0,105,7,9,5,9,6,2,1,1,2
15,54,71,35,11,61.0,1.0,95,7,4,2,4,3,-8,-5,-1,1
16,58,76,38,4,65.0,1.0,105,8,9,5,9,6,-3,-2,1,2
17,62,69,34,9,69.0,3.0,95,8,2,1,2,2,-10,-6,-1,1
18,64,76,38,4,73.0,1.0,105,9,9,5,9,6,-3,-2,1,2
19,68,79,40,7,77.0,2.0,95,9,12,7,0,1,1,1,1,3
20,71,76,38,4,81.0,2.0,105,10,9,5,9,6,-3,-2,-1,2
21,74,69,34,9,85.0,1.0,95,10,2,1,2,2,-7,-4,-1,1
22,78,76,38,4,89.0,1.0,105,11,9,5,9,6,-3,-2,1,2
23,82,71,35,11,93.0,1.0,95,11,4,2,4,3,-8,-5,-1,1
24,86,76,38,4,97.0,1.0,105,12,9,5,9,6,5,3,1,2
25,90,69,34,9,101.0,2.0,95,12,2,1,2,2,-10,-6,-1,1
26,93,76,38,4,105.0,1.0,105,13,9,5,9,6,-2,-1,1,2
27,97,79,40,7,109.0,2.0,95,13,12,7,0,1,1,1,1,3
28,100,81,41,9,113.0,2.0,105,14,14,8,2,2,2,1,1,4
29,103,74,37,2,117.0,1.0,95,14,7,4,7,5,-2,-1,-1,3
30,107,76,38,4,121.0,1.0,105,15,9,5,9,6,2,1,1,4
31,111,71,35,11,125.0,1.0,95,15,4,2,4,3,-8,-5,-1,3
32,115,81,41,9,129.0,1.0,105,16,14,8,2,2,5,3,1,4
33,120,81,41,9,133.0,2.0,95,16,14,8,2,2,5,3,0,4
34,123,74,37,2,137.0,1.0,105,17,7,4,7,5,-2,-1,-1,3
35,127,79,40,7,141.0,2.0,95,17,12,7,0,1,3,2,1,4
36,130,81,41,9,145.0,1.0,105,18,14,8,2,2,2,1,1,5
37,135,81,41,9,149.0,2.0,95,18,14,8,2,2,5,3,0,5
38,138,74,37,2,153.0,0.5,105,19,7,4,7,5,-2,-1,-1,4
39,143,71,35,11,157.0,1.0,95,19,4,2,4,3,-8,-5,-1,3
40,147,81,41,9,161.0,1.0,105,20,14,8,2,2,5,3,1,4
41,152,81,41,9,165.0,2.0,95,20,14,8,2,2,5,3,0,4
42,155,74,37,2,169.0,1.0,105,21,7,4,7,5,-2,-1,-1,3
43,159,79,40,7,173.0,2.0,95,21,12,7,0,1,3,2,1,4
44,162,81,41,9,177.0,2.0,105,22,14,8,2,2,2,1,1,5
45,165,74,37,2,181.0,1.0,95,22,7,4,7,5,-2,-1,-1,4
46,169,76,38,4,185.0,1.0,105,23,9,5,9,6,2,1,1,5
47,173,71,35,11,189.0,1.0,95,23,4,2,4,3,-8,-5,-1,4
48,177,81,41,9,193.0,1.0,105,24,14,8,2,2,5,3,1,5
49,182,81,41,9,197.0,2.0,95,24,14,8,2,2,5,3,0,5
50,185,74,37,2,201.0,1.0,105,25,7,4,7,5,-2,-1,-1,4
51,189,79,40,7,205.0,2.0,95,25,12,7,0,1,3,2,1,5
52,192,81,41,9,209.0,1.0,105,26,14,8,2,2,2,1,1,6
53,197,81,41,9,213.0,2.0,95,26,14,8,2,2,5,3,0,6
54,200,74,37,2,217.0,0.5,105,27,7,4,7,5,-2,-1,-1,5
55,205,71,35,11,221.0,1.0,95,27,4,2,4,3,-8,-5,-1,4
56,209,81,41,9,225.0,1.0,105,28,14,8,2,2,5,3,1,5
57,214,81,41,9,229.0,2.0,95,28,14,8,2,2,5,3,0,5
58,217,74,37,2,233.0,1.0,105,29,7,4,7,5,-2,-1,-1,4
59,221,79,40,7,237.0,2.0,95,29,12,7,0,1,3,2,1,5
60,224,81,41,9,241.0,2.0,105,30,14,8,2,2,2,1,1,6
61,227,74,37,2,245.0,1.0,95,30,7,4,7,5,-2,-1,-1,5
62,231,76,38,4,249.0,1.0,105,31,9,5,9,6,2,1,1,6
63,235,71,35,11,253.0,1.0,95,31,4,2,4,3,-8,-5,-1,5
64,239,76,38,4,257.0,1.0,105,32,9,5,9,6,-3,-2,1,6
65,244,76,38,4,261.0,1.0,95,32,9,5,9,6,7,4,0,6
66,248,69,34,9,265.0,0.5,105,33,2,1,2,2,0,0,-1,5
67,253,79,40,7,269.0,2.0,95,33,12,7,0,1,1,1,1,6
68,256,76,38,4,273.0,1.0,105,34,9,5,9,6,-3,-2,-1,5
69,261,76,38,4,277.0,1.0,95,34,9,5,9,6,7,4,0,5
70,265,76,38,4,281.0,1.0,105,35,9,5,9,6,-3,-2,0,5
71,269,71,35,11,285.0,1.0,95,35,4,2,4,3,-8,-5,-1,4
72,272,76,38,4,289.0,1.0,105,36,9,5,9,6,7,4,1,5
73,277,76,38,4,293.0,1.0,95,36,9,5,9,6,7,4,0,5
74,281,69,34,9,297.0,0.5,105,37,2,1,2,2,0,0,-1,4
75,286,79,40,7,301.0,2.0,95,37,12,7,0,1,1,1,1,5
76,289,81,41,9,305.0,1.0,105,38,14,8,2,2,2,1,1,6
77,293,74,37,2,309.0,1.0,95,38,7,4,7,5,-2,-1,-1,5
78,297,76,38,4,313.0,1.0,105,39,9,5,9,6,2,1,1,6
79,301,71,35,11,317.0,1.0,95,39,4,2,4,3,-8,-5,-1,5
80,305,76,38,4,321.0,1.0,105,40,9,5,9,6,-3,-2,1,6
81,310,76,38,4,325.0,1.0,95,40,9,5,9,6,7,4,0,6
82,314,69,34,9,329.0,0.5,105,41,2,1,2,2,0,0,-1,5
83,319,79,40,7,333.0,2.0,95,41,12,7,0,1,1,1,1,6
84,322,76,38,4,337.0,1.0,105,42,9,5,9,6,-3,-2,-1,5
85,327,76,38,4,341.0,1.0,95,42,9,5,9,6,7,4,0,5
86,331,76,38,4,345.0,1.0,105,43,9,5,9,6,-3,-2,0,5
87,335,71,35,11,349.0,1.0,95,43,4,2,4,3,-8,-5,-1,4
88,338,76,38,4,353.0,1.0,105,44,9,5,9,6,7,4,1,5
89,343,76,38,4,357.0,1.0,95,44,9,5,9,6,7,4,0,5
90,347,69,34,9,361.0,0.5,105,45,2,1,2,2,0,0,-1,4
91,352,79,40,7,365.0,2.0,95,45,12,7,0,1,1,1,1,5
92,355,81,41,9,369.0,1.0,105,46,14,8,2,2,2,1,1,6
93,359,74,37,2,373.0,1.0,95,46,7,4,7,5,-2,-1,-1,5
94,363,76,38,4,377.0,1.0,105,47,9,5,9,6,2,1,1,6
95,367,71,35,11,381.0,1.0,95,47,4,2,4,3,-8,-5,-1,5
96,371,81,41,9,385.0,1.0,105,48,14,8,2,2,2,1,1,6
97,376,81,41,9,389.0,2.0,95,48,14,8,2,2,12,7,0,6
98,379,74,37,2,393.0,1.0,105,49,7,4,7,5,-2,-1,-1,5
99,383,79,40,7,397.0,2.0,95,49,12,7,0,1,3,2,1,6
100,386,81,41,9,401.0,1.0,105,50,14,8,2,2,2,1,1,7
101,391,81,41,9,405.0,2.0,95,50,14,8,2,2,12,7,0,7
102,394,74,37,2,409.0,2.0,105,51,7,4,7,5,-2,-1,-1,6
103,397,71,35,11,413.0,1.0,95,51,4,2,4,3,-8,-5,-1,5
104,402,81,41,9,417.0,1.0,105,52,14,8,2,2,12,7,1,6
105,407,81,41,9,421.0,2.0,95,52,14,8,2,2,12,7,0,6
106,410,74,37,2,425.0,1.0,105,53,7,4,7,5,-2,-1,-1,5
107,414,79,40,7,429.0,2.0,95,53,12,7,0,1,3,2,1,6
108,417,81,41,9,433.0,2.0,105,54,14,8,2,2,2,1,1,7
109,420,74,37,2,437.0,1.0,95,54,7,4,7,5,-2,-1,-1,6
110,424,76,38,4,441.0,1.0,105,55,9,5,9,6,2,1,1,7
111,428,71,35,11,445.0,1.0,95,55,4,2,4,3,-8,-5,-1,6
112,432,81,41,9,449.0,1.0,105,56,14,8,2,2,2,1,1,7
113,437,81,41,9,453.0,2.0,95,56,14,8,2,2,12,7,0,7
114,440,74,37,2,457.0,1.0,105,57,7,4,7,5,-2,-1,-1,6
115,444,79,40,7,461.0,2.0,95,57,12,7,0,1,3,2,1,7
116,447,81,41,9,465.0,1.0,105,58,14,8,2,2,2,1,1,8
117,452,81,41,9,469.0,2.0,95,58,14,8,2,2,12,7,0,8
118,455,74,37,2,473.0,2.0,105,59,7,4,7,5,-2,-1,-1,7
119,458,71,35,11,477.0,1.0,95,59,4,2,4,3,-8,-5,-1,6
120,463,81,41,9,481.0,1.0,105,60,14,8,2,2,12,7,1,7
121,468,81,41,9,485.0,2.0,95,60,14,8,2,2,12,7,0,7
122,471,74,37,2,489.0,1.0,105,61,7,4,7,5,-2,-1,-1,6
123,475,79,40,7,493.0,2.0,95,61,12,7,0,1,3,2,1,7
124,478,81,41,9,497.0,2.0,105,62,14,8,2,2,2,1,1,8
125,481,74,37,2,501.0,1.0,95,62,7,4,7,5,-2,-1,-1,7
126,485,76,38,4,505.0,1.0,105,63,9,5,9,6,2,1,1,8
127,489,71,35,11,509.0,1.0,95,63,4,2,4,3,-8,-5,-1,7
