,index,midi_note_num,diatonic_note_num,chromatic_pitch_class,onset,duration,velocity,bar_count,relative_chromatic_pitch,relative_diatonic_pitch,chromatic_scale_degree,diatonic_scale_degree,chromatic_interval,diatonic_interval,parsons_code,parsons_cumsum
0,0,76,38,4,0.0,2.0,105,0,14,8,2,2,0,0,0,0
1,2,69,34,9,4.0,2.0,95,0,7,4,7,5,-5,-3,-1,-1
2,5,76,38,4,8.0,1.0,105,1,14,8,2,2,-2,-1,1,0
3,9,79,40,7,12.0,2.0,95,1,17,10,5,4,1,1,1,1
4,12,76,38,4,16.0,2.0,105,2,14,8,2,2,-3,-2,-1,0
5,14,69,34,9,20.0,2.0,95,2,7,4,7,5,-5,-3,-1,-1
6,17,76,38,4,24.0,1.0,105,3,14,8,2,2,-3,-2,1,0
7,21,71,35,11,28.0,1.0,95,3,9,5,9,6,-8,-5,-1,-1
8,26,76,38,4,32.0,1.0,105,4,14,8,2,2,7,4,1,0
9,30,69,34,9,36.0,2.0,95,4,7,4,7,5,-10,-6,-1,-1
10,33,76,38,4,40.0,1.0,105,5,14,8,2,2,-2,-1,1,0
11,37,79,40,7,44.0,2.0,95,5,17,10,5,4,1,1,1,1
12,41,81,41,9,48.0,2.0,105,6,19,11,7,5,2,1,1,2
13,44,74,37,2,52.0,1.0,95,6,12,7,0,1,-2,-1,-1,1
14,48,79,40,7,56.0,1.0,105,7,17,10,5,4,5,3,1,2
15,52,71,35,11,60.0,1.0,95,7,9,5,9,6,-8,-5,-1,1
16,57,76,38,4,64.0,2.0,105,8,14,8,2,2,7,4,1,2
17,59,69,34,9,68.0,2.0,95,8,7,4,7,5,-5,-3,-1,1
18,62,76,38,4,72.0,1.0,105,9,14,8,2,2,-2,-1,1,2
19,66,79,40,7,76.0,2.0,95,9,17,10,5,4,1,1,1,3
20,69,76,38,4,80.0,2.0,105,10,14,8,2,2,-3,-2,-1,2
21,71,69,34,9,84.0,2.0,95,10,7,4,7,5,-5,-3,-1,1
22,74,76,38,4,88.0,1.0,105,11,14,8,2,2,-3,-2,1,2
23,78,71,35,11,92.0,1.0,95,11,9,5,9,6,-8,-5,-1,1
24,83,76,38,4,96.0,1.0,105,12,14,8,2,2,7,4,1,2
25,87,69,34,9,100.0,2.0,95,12,7,4,7,5,-10,-6,-1,1
26,90,76,38,4,104.0,1.0,105,13,14,8,2,2,-2,-1,1,2
27,94,79,40,7,108.0,2.0,95,13,17,10,5,4,1,1,1,3
28,98,81,41,9,112.0,2.0,105,14,19,11,7,5,2,1,1,4
29,101,74,37,2,116.0,1.0,95,14,12,7,0,1,-2,-1,-1,3
30,105,79,40,7,120.0,1.0,105,15,17,10,5,4,5,3,1,4
31,109,71,35,11,124.0,1.0,95,15,9,5,9,6,-8,-5,-1,3
32,114,81,41,9,128.0,1.0,105,16,19,11,7,5,12,7,1,4
33,118,81,41,9,132.0,2.0,95,16,19,11,7,5,5,3,0,4
34,121,74,37,2,136.0,1.0,105,17,12,7,0,1,-2,-1,-1,3
35,125,79,40,7,140.0,2.0,105,18,17,10,5,4,3,2,1,4
36,128,81,41,9,144.0,2.0,105,19,19,11,7,5,2,1,1,5
37,132,81,41,9,148.0,2.0,95,19,19,11,7,5,5,3,0,5
38,135,74,37,2,152.0,2.0,105,20,12,7,0,1,-2,-1,-1,4
39,138,71,35,11,156.0,1.0,95,20,9,5,9,6,-8,-5,-1,3
40,143,83,42,11,160.0,1.0,105,21,21,12,9,6,14,8,1,4
41,148,81,41,9,164.0,2.0,95,21,19,11,7,5,5,3,-1,3
42,151,74,37,2,168.0,1.0,105,22,12,7,0,1,-2,-1,-1,2
43,155,79,40,7,172.0,2.0,95,22,17,10,5,4,1,1,1,3
44,159,81,41,9,176.0,1.0,105,23,19,11,7,5,2,1,1,4
45,163,74,37,2,180.0,2.0,95,23,12,7,0,1,-2,-1,-1,3
46,166,78,39,6,184.0,0.5,105,24,16,9,4,3,-1,-1,1,4
47,171,71,35,11,188.0,1.0,95,24,9,5,9,6,-3,-2,-1,3
48,176,81,41,9,192.0,1.0,105,25,19,11,7,5,12,7,1,4
49,180,81,41,9,196.0,2.0,95,25,19,11,7,5,5,3,0,4
50,183,74,37,2,200.0,1.0,105,26,12,7,0,1,-2,-1,-1,3
51,187,79,40,7,204.0,2.0,105,27,17,10,5,4,3,2,1,4
52,190,81,41,9,208.0,2.0,105,28,19,11,7,5,2,1,1,5
53,194,81,41,9,212.0,2.0,95,28,19,11,7,5,5,3,0,5
54,197,74,37,2,216.0,2.0,105,29,12,7,0,1,-2,-1,-1,4
55,200,71,35,11,220.0,1.0,95,29,9,5,9,6,-8,-5,-1,3
56,205,83,42,11,224.0,1.0,105,30,21,12,9,6,14,8,1,4
57,210,81,41,9,228.0,2.0,95,30,19,11,7,5,5,3,-1,3
58,213,74,37,2,232.0,1.0,105,31,12,7,0,1,-2,-1,-1,2
59,217,79,40,7,236.0,2.0,95,31,17,10,5,4,1,1,1,3
60,221,81,41,9,240.0,1.0,105,32,19,11,7,5,2,1,1,4
61,225,74,37,2,244.0,2.0,95,32,12,7,0,1,-2,-1,-1,3
62,228,78,39,6,248.0,0.5,105,33,16,9,4,3,-1,-1,1,4
63,233,71,35,11,252.0,1.0,95,33,9,5,9,6,-3,-2,-1,3
64,238,76,38,4,256.0,1.0,105,34,14,8,2,2,7,4,1,4
65,243,76,38,4,260.0,1.0,95,34,14,8,2,2,7,4,0,4
66,246,76,38,4,264.0,1.0,105,35,14,8,2,2,-3,-2,0,4
67,250,79,40,7,268.0,1.0,95,35,17,10,5,4,1,1,1,5
68,254,76,38,4,272.0,1.0,105,36,14,8,2,2,-3,-2,-1,4
69,259,76,38,4,276.0,1.0,95,36,14,8,2,2,7,4,0,4
70,264,76,38,4,280.0,1.0,105,37,14,8,2,2,-3,-2,0,4
71,268,71,35,11,284.0,1.0,95,37,9,5,9,6,-8,-5,-1,3
72,273,76,38,4,288.0,1.0,105,38,14,8,2,2,7,4,1,4
73,277,76,38,4,292.0,1.0,95,38,14,8,2,2,7,4,0,4
74,280,76,38,4,296.0,1.0,105,39,14,8,2,2,-3,-2,0,4
75,285,79,40,7,300.0,2.0,95,39,17,10,5,4,1,1,1,5
76,288,81,41,9,304.0,2.0,105,40,19,11,7,5,2,1,1,6
77,291,74,37,2,308.0,1.0,95,40,12,7,0,1,-2,-1,-1,5
78,295,79,40,7,312.0,1.0,105,41,17,10,5,4,5,3,1,6
79,299,71,35,11,316.0,1.0,95,41,9,5,9,6,-8,-5,-1,5
80,304,76,38,4,320.0,1.0,105,42,14,8,2,2,7,4,1,6
81,309,76,38,4,324.0,1.0,95,42,14,8,2,2,7,4,0,6
82,312,76,38,4,328.0,1.0,105,43,14,8,2,2,-3,-2,0,6
83,316,79,40,7,332.0,1.0,95,43,17,10,5,4,1,1,1,7
84,320,76,38,4,336.0,1.0,105,44,14,8,2,2,-3,-2,-1,6
85,325,76,38,4,340.0,1.0,95,44,14,8,2,2,7,4,0,6
86,330,76,38,4,344.0,1.0,105,45,14,8,2,2,-3,-2,0,6
87,334,71,35,11,348.0,1.0,95,45,9,5,9,6,-8,-5,-1,5
88,339,76,38,4,352.0,1.0,105,46,14,8,2,2,7,4,1,6
89,343,76,38,4,356.0,1.0,95,46,14,8,2,2,7,4,0,6
90,346,76,38,4,360.0,1.0,105,47,14,8,2,2,-3,-2,0,6
91,351,79,40,7,364.0,2.0,95,47,17,10,5,4,1,1,1,7
92,354,81,41,9,368.0,2.0,105,48,19,11,7,5,2,1,1,8
93,357,74,37,2,372.0,1.0,95,48,12,7,0,1,-2,-1,-1,7
94,361,79,40,7,376.0,1.0,105,49,17,10,5,4,5,3,1,8
95,365,71,35,11,380.0,1.0,95,49,9,5,9,6,-8,-5,-1,7
