,index,midi_note_num,diatonic_note_num,chromatic_pitch_class,onset,duration,velocity,bar_count,relative_chromatic_pitch,relative_diatonic_pitch,chromatic_scale_degree,diatonic_scale_degree,chromatic_interval,diatonic_interval,parsons_code,parsons_cumsum
0,0,81,41,9,0.0,1.0,105,0,19,11,7,5,0,0,0,0
1,3,79,40,7,3.0,1.0,95,0,17,10,5,4,-2,-1,-1,-1
2,6,79,40,7,6.0,1.0,105,1,17,10,5,4,2,1,0,-1
3,9,74,37,2,9.0,1.0,95,1,12,7,0,1,-3,-2,-1,-2
4,12,69,34,9,12.0,1.0,105,2,7,4,7,5,-3,-2,-1,-3
5,15,74,37,2,15.0,1.0,95,2,12,7,0,1,5,3,1,-2
6,18,76,38,4,18.0,1.0,105,3,14,8,2,2,-1,-1,1,-1
7,21,72,36,0,21.0,1.0,95,3,10,6,10,7,-4,-2,-1,-2
8,24,77,39,5,24.0,1.0,105,4,15,9,3,3,1,1,1,-1
9,27,77,39,5,27.0,1.0,95,4,15,9,3,3,0,0,0,-1
10,30,76,38,4,30.0,1.0,105,5,14,8,2,2,-1,-1,-1,-2
11,33,72,36,0,33.0,1.0,95,5,10,6,10,7,-4,-2,-1,-3
12,36,77,39,5,36.0,1.0,105,6,15,9,3,3,1,1,1,-2
13,39,76,38,4,39.0,1.0,95,6,14,8,2,2,2,1,-1,-3
14,42,69,34,9,42.0,1.0,105,7,7,4,7,5,-3,-2,-1,-4
15,45,74,37,2,45.0,3.0,95,7,12,7,0,1,2,1,1,-3
16,46,81,41,9,48.0,1.0,105,8,19,11,7,5,7,4,1,-2
17,49,79,40,7,51.0,1.0,95,8,17,10,5,4,-2,-1,-1,-3
18,52,79,40,7,54.0,1.0,105,9,17,10,5,4,2,1,0,-3
19,55,74,37,2,57.0,1.0,95,9,12,7,0,1,-3,-2,-1,-4
20,58,69,34,9,60.0,1.0,105,10,7,4,7,5,-3,-2,-1,-5
21,61,74,37,2,63.0,1.0,95,10,12,7,0,1,5,3,1,-4
22,64,76,38,4,66.0,1.0,105,11,14,8,2,2,-1,-1,1,-3
23,67,72,36,0,69.0,1.0,95,11,10,6,10,7,-4,-2,-1,-4
24,70,77,39,5,72.0,1.0,105,12,15,9,3,3,1,1,1,-3
25,73,77,39,5,75.0,1.0,95,12,15,9,3,3,0,0,0,-3
26,76,76,38,4,78.0,1.0,105,13,14,8,2,2,-1,-1,-1,-4
27,79,72,36,0,81.0,1.0,95,13,10,6,10,7,-4,-2,-1,-5
28,82,77,39,5,84.0,1.0,105,14,15,9,3,3,1,1,1,-4
29,85,76,38,4,87.0,1.0,95,14,14,8,2,2,2,1,-1,-5
30,88,69,34,9,90.0,1.0,105,15,7,4,7,5,-3,-2,-1,-6
31,91,74,37,2,93.0,3.0,95,15,12,7,0,1,1,1,1,-5
32,92,70,35,10,96.0,1.0,105,16,8,5,8,6,-4,-2,-1,-6
33,95,74,37,2,99.0,1.0,95,16,12,7,0,1,4,2,1,-5
34,98,70,35,10,102.0,1.0,105,17,8,5,8,6,-7,-4,-1,-6
35,101,74,37,2,105.0,1.0,95,17,12,7,0,1,4,2,1,-5
36,104,69,34,9,108.0,1.0,105,18,7,4,7,5,-8,-5,-1,-6
37,107,74,37,2,111.0,1.0,95,18,12,7,0,1,5,3,1,-5
38,110,69,34,9,114.0,1.0,105,19,7,4,7,5,-8,-5,-1,-6
39,113,74,37,2,117.0,1.0,95,19,12,7,0,1,5,3,1,-5
40,116,70,35,10,120.0,1.0,105,20,8,5,8,6,-7,-4,-1,-6
41,119,74,37,2,123.0,1.0,95,20,12,7,0,1,4,2,1,-5
42,122,70,35,10,126.0,1.0,105,21,8,5,8,6,-7,-4,-1,-6
43,125,74,37,2,129.0,1.0,95,21,12,7,0,1,4,2,1,-5
44,128,81,41,9,132.0,1.0,105,22,19,11,7,5,4,2,1,-4
45,131,81,41,9,135.0,1.0,95,22,19,11,7,5,2,1,0,-4
46,134,76,38,4,138.0,1.0,105,23,14,8,2,2,-3,-2,-1,-5
47,137,76,38,4,141.0,1.0,95,23,14,8,2,2,2,1,0,-5
48,140,70,35,10,144.0,1.0,105,24,8,5,8,6,-2,-1,-1,-6
49,143,74,37,2,147.0,1.0,95,24,12,7,0,1,4,2,1,-5
50,146,70,35,10,150.0,1.0,105,25,8,5,8,6,-7,-4,-1,-6
51,149,74,37,2,153.0,1.0,95,25,12,7,0,1,4,2,1,-5
52,152,69,34,9,156.0,1.0,105,26,7,4,7,5,-8,-5,-1,-6
53,155,74,37,2,159.0,1.0,95,26,12,7,0,1,5,3,1,-5
54,158,69,34,9,162.0,1.0,105,27,7,4,7,5,-8,-5,-1,-6
55,161,74,37,2,165.0,1.0,95,27,12,7,0,1,5,3,1,-5
56,164,70,35,10,168.0,1.0,105,28,8,5,8,6,-7,-4,-1,-6
57,167,74,37,2,171.0,1.0,95,28,12,7,0,1,4,2,1,-5
58,170,70,35,10,174.0,1.0,105,29,8,5,8,6,-7,-4,-1,-6
59,173,74,37,2,177.0,1.0,95,29,12,7,0,1,4,2,1,-5
60,176,71,35,11,180.0,1.0,105,30,9,5,9,6,-6,-4,-1,-6
61,179,74,37,2,183.0,1.0,95,30,12,7,0,1,3,2,1,-5
62,182,71,35,11,186.0,1.0,105,31,9,5,9,6,-6,-4,-1,-6
63,185,74,37,2,189.0,1.0,95,31,12,7,0,1,3,2,1,-5
64,188,82,42,10,192.0,2.0,105,32,20,12,8,6,5,3,1,-4
65,192,76,38,4,198.0,2.0,105,33,14,8,2,2,-1,-1,-1,-5
66,194,76,38,4,201.0,1.0,95,33,14,8,2,2,4,2,0,-5
67,197,81,41,9,204.0,2.0,105,34,19,11,7,5,2,1,1,-4
68,201,74,37,2,210.0,2.0,105,35,12,7,0,1,-2,-1,-1,-5
69,203,74,37,2,213.0,1.0,95,35,12,7,0,1,4,2,0,-5
70,206,79,40,7,216.0,2.0,105,36,17,10,5,4,2,1,1,-4
71,210,73,36,1,222.0,2.0,105,37,11,6,11,7,-1,-1,-1,-5
72,212,73,36,1,225.0,1.0,95,37,11,6,11,7,4,2,0,-5
73,215,77,39,5,228.0,2.0,105,38,15,9,3,3,1,1,1,-4
74,218,81,41,9,234.0,3.0,105,39,19,11,7,5,1,1,1,-3
75,219,81,41,9,237.0,1.0,95,39,19,11,7,5,0,0,0,-3
76,222,82,42,10,240.0,2.0,105,40,20,12,8,6,1,1,1,-2
77,225,76,38,4,246.0,3.0,105,41,14,8,2,2,-6,-4,-1,-3
78,226,76,38,4,249.0,1.0,95,41,14,8,2,2,0,0,0,-3
79,229,81,41,9,252.0,2.0,105,42,19,11,7,5,2,1,1,-2
80,232,74,37,2,257.0,3.0,105,43,12,7,0,1,-7,-4,-1,-3
81,233,74,37,2,260.0,1.0,95,43,12,7,0,1,0,0,0,-3
82,236,79,40,7,263.0,2.0,105,44,17,10,5,4,2,1,1,-2
83,240,73,36,1,269.0,2.0,105,45,11,6,11,7,-1,-1,-1,-3
84,242,73,36,1,272.0,1.0,95,45,11,6,11,7,4,2,0,-3
85,245,77,39,5,275.0,2.0,105,46,15,9,3,3,1,1,1,-2
86,247,74,37,2,278.0,1.0,95,46,12,7,0,1,0,0,-1,-3
87,250,74,37,2,281.0,3.0,105,47,12,7,0,1,1,1,0,-3
