,index,midi_note_num,diatonic_note_num,chromatic_pitch_class,onset,duration,velocity,bar_count,relative_chromatic_pitch,relative_diatonic_pitch,chromatic_scale_degree,diatonic_scale_degree,chromatic_interval,diatonic_interval,parsons_code,parsons_cumsum
0,0,69,34,9,0.0,2.0,105,0,7,4,7,5,0,0,0,0
1,2,69,34,9,3.0,1.0,95,0,7,4,7,5,0,0,0,0
2,5,69,34,9,6.0,1.0,95,0,7,4,7,5,3,2,0,0
3,8,69,34,9,9.0,2.0,105,1,7,4,7,5,3,2,0,0
4,10,69,34,9,12.0,1.0,95,1,7,4,7,5,0,0,0,0
5,13,71,35,11,15.0,1.0,95,1,9,5,9,6,5,3,1,1
6,16,69,34,9,18.0,2.0,105,2,7,4,7,5,-5,-3,-1,0
7,18,69,34,9,21.0,1.0,95,2,7,4,7,5,0,0,0,0
8,21,69,34,9,24.0,1.0,95,2,7,4,7,5,3,2,0,0
9,24,71,35,11,27.0,1.0,105,3,9,5,9,6,5,3,1,1
10,27,71,35,11,30.0,2.0,95,3,9,5,9,6,0,0,0,1
11,29,71,35,11,33.0,1.0,95,3,9,5,9,6,1,0,0,1
12,32,69,34,9,36.0,2.0,105,4,7,4,7,5,-5,-3,-1,0
13,34,69,34,9,39.0,1.0,95,4,7,4,7,5,0,0,0,0
14,37,69,34,9,42.0,1.0,95,4,7,4,7,5,3,2,0,0
15,40,69,34,9,45.0,2.0,105,5,7,4,7,5,3,2,0,0
16,42,69,34,9,48.0,1.0,95,5,7,4,7,5,0,0,0,0
17,45,71,35,11,51.0,1.0,95,5,9,5,9,6,5,3,1,1
18,48,69,34,9,54.0,2.0,105,6,7,4,7,5,-5,-3,-1,0
19,50,69,34,9,57.0,1.0,95,6,7,4,7,5,0,0,0,0
20,53,69,34,9,60.0,1.0,95,6,7,4,7,5,3,2,0,0
21,56,71,35,11,63.0,1.0,105,7,9,5,9,6,5,3,1,1
22,59,71,35,11,66.0,2.0,95,7,9,5,9,6,0,0,0,1
23,61,71,35,11,69.0,1.0,95,7,9,5,9,6,1,0,0,1
24,64,74,37,2,72.0,2.0,105,8,12,7,0,1,0,0,1,2
25,66,78,39,6,75.0,1.0,95,8,16,9,4,3,2,1,1,3
26,69,76,38,4,78.0,1.0,95,8,14,8,2,2,5,3,-1,2
27,72,74,37,2,81.0,2.0,105,9,12,7,0,1,5,3,-1,1
28,74,78,39,6,84.0,1.0,95,9,16,9,4,3,2,1,1,2
29,77,78,39,6,87.0,1.0,95,9,16,9,4,3,7,4,0,2
30,80,74,37,2,90.0,2.0,105,10,12,7,0,1,-7,-4,-1,1
31,82,78,39,6,93.0,1.0,95,10,16,9,4,3,2,1,1,2
32,85,76,38,4,96.0,1.0,95,10,14,8,2,2,5,3,-1,1
33,88,71,35,11,99.0,1.0,105,11,9,5,9,6,2,1,-1,0
34,91,71,35,11,102.0,2.0,95,11,9,5,9,6,0,0,0,0
35,93,71,35,11,105.0,1.0,95,11,9,5,9,6,1,0,0,0
36,96,74,37,2,108.0,2.0,105,12,12,7,0,1,0,0,1,1
37,98,78,39,6,111.0,1.0,95,12,16,9,4,3,2,1,1,2
38,101,76,38,4,114.0,1.0,95,12,14,8,2,2,5,3,-1,1
39,104,74,37,2,117.0,2.0,105,13,12,7,0,1,5,3,-1,0
40,106,78,39,6,120.0,1.0,95,13,16,9,4,3,2,1,1,1
41,109,78,39,6,123.0,1.0,95,13,16,9,4,3,7,4,0,1
42,112,74,37,2,126.0,2.0,105,14,12,7,0,1,-7,-4,-1,0
43,114,78,39,6,129.0,1.0,95,14,16,9,4,3,2,1,1,1
44,117,76,38,4,132.0,1.0,95,14,14,8,2,2,5,3,-1,0
45,120,71,35,11,135.0,1.0,105,15,9,5,9,6,2,1,-1,-1
46,123,71,35,11,138.0,2.0,95,15,9,5,9,6,0,0,0,-1
47,125,71,35,11,141.0,1.0,95,15,9,5,9,6,1,0,0,-1
48,128,66,32,6,144.0,1.0,105,16,4,2,4,3,-8,-5,-1,-2
49,131,74,37,2,147.0,1.0,95,16,12,7,0,1,8,5,1,-1
50,134,74,37,2,150.0,1.0,95,16,12,7,0,1,8,5,0,-1
51,137,66,32,6,153.0,1.0,105,17,4,2,4,3,0,0,-1,-2
52,140,74,37,2,156.0,1.0,95,17,12,7,0,1,8,5,1,-1
53,143,71,35,11,159.0,1.0,95,17,9,5,9,6,5,3,-1,-2
54,146,66,32,6,162.0,1.0,105,18,4,2,4,3,-8,-5,-1,-3
55,149,74,37,2,165.0,1.0,95,18,12,7,0,1,8,5,1,-2
56,152,74,37,2,168.0,1.0,95,18,12,7,0,1,8,5,0,-2
57,155,71,35,11,171.0,1.0,105,19,9,5,9,6,5,3,-1,-3
58,158,71,35,11,174.0,2.0,95,19,9,5,9,6,0,0,0,-3
59,160,71,35,11,177.0,1.0,95,19,9,5,9,6,1,0,0,-3
60,163,66,32,6,180.0,1.0,105,20,4,2,4,3,-8,-5,-1,-4
61,166,74,37,2,183.0,1.0,95,20,12,7,0,1,8,5,1,-3
62,169,74,37,2,186.0,1.0,95,20,12,7,0,1,8,5,0,-3
63,172,66,32,6,189.0,1.0,105,21,4,2,4,3,0,0,-1,-4
64,175,74,37,2,192.0,1.0,95,21,12,7,0,1,8,5,1,-3
65,178,71,35,11,195.0,1.0,95,21,9,5,9,6,5,3,-1,-4
66,181,66,32,6,198.0,1.0,105,22,4,2,4,3,-8,-5,-1,-5
67,184,74,37,2,201.0,1.0,95,22,12,7,0,1,8,5,1,-4
68,187,74,37,2,204.0,1.0,95,22,12,7,0,1,8,5,0,-4
69,190,71,35,11,207.0,1.0,105,23,9,5,9,6,5,3,-1,-5
70,193,71,35,11,210.0,2.0,95,23,9,5,9,6,0,0,0,-5
71,195,71,35,11,213.0,1.0,95,23,9,5,9,6,1,0,0,-5
72,198,78,39,6,216.0,2.0,105,24,16,9,4,3,4,2,1,-4
73,200,76,38,4,219.0,1.0,95,24,14,8,2,2,-2,-1,-1,-5
74,203,74,37,2,222.0,2.0,95,24,12,7,0,1,-2,-1,-1,-6
75,205,69,34,9,225.0,2.0,105,25,7,4,7,5,-2,-1,-1,-7
76,207,69,34,9,228.0,1.0,95,25,7,4,7,5,0,0,0,-7
77,210,69,34,9,231.0,1.0,95,25,7,4,7,5,3,2,0,-7
78,213,78,39,6,234.0,1.0,105,26,16,9,4,3,12,7,1,-6
79,216,76,38,4,237.0,1.0,95,26,14,8,2,2,-2,-1,-1,-7
80,219,74,37,2,240.0,2.0,95,26,12,7,0,1,-2,-1,-1,-8
81,221,71,35,11,243.0,1.0,105,27,9,5,9,6,4,2,-1,-9
82,224,71,35,11,246.0,2.0,95,27,9,5,9,6,0,0,0,-9
83,226,71,35,11,249.0,1.0,95,27,9,5,9,6,1,0,0,-9
84,229,78,39,6,252.0,2.0,105,28,16,9,4,3,4,2,1,-8
85,230,76,38,4,255.0,2.0,95,28,14,8,2,2,-2,-1,-1,-9
86,231,74,37,2,258.0,2.0,95,28,12,7,0,1,-2,-1,-1,-10
87,232,69,34,9,261.0,1.0,105,29,7,4,7,5,-5,-3,-1,-11
88,235,69,34,9,264.0,1.0,95,29,7,4,7,5,0,0,0,-11
89,238,69,34,9,267.0,1.0,95,29,7,4,7,5,3,2,0,-11
90,241,78,39,6,270.0,1.0,105,30,16,9,4,3,12,7,1,-10
91,244,76,38,4,273.0,1.0,95,30,14,8,2,2,-2,-1,-1,-11
92,247,74,37,2,276.0,2.0,95,30,12,7,0,1,-2,-1,-1,-12
93,249,71,35,11,279.0,2.0,105,31,9,5,9,6,4,2,-1,-13
94,251,71,35,11,282.0,6.0,95,31,9,5,9,6,0,0,0,-13
95,252,69,34,9,288.0,2.0,105,32,7,4,7,5,-2,-1,-1,-14
96,254,69,34,9,291.0,1.0,95,32,7,4,7,5,0,0,0,-14
97,257,69,34,9,294.0,2.0,95,32,7,4,7,5,3,2,0,-14
98,259,69,34,9,297.0,2.0,105,33,7,4,7,5,3,2,0,-14
99,261,69,34,9,300.0,1.0,95,33,7,4,7,5,0,0,0,-14
100,264,71,35,11,303.0,2.0,95,33,9,5,9,6,5,3,1,-13
101,266,69,34,9,306.0,2.0,105,34,7,4,7,5,-5,-3,-1,-14
102,268,69,34,9,309.0,1.0,95,34,7,4,7,5,0,0,0,-14
103,271,69,34,9,312.0,1.0,95,34,7,4,7,5,3,2,0,-14
104,274,71,35,11,315.0,2.0,105,35,9,5,9,6,5,3,1,-13
105,276,71,35,11,318.0,2.0,95,35,9,5,9,6,0,0,0,-13
106,278,71,35,11,321.0,1.0,95,35,9,5,9,6,2,1,0,-13
107,281,69,34,9,324.0,2.0,105,36,7,4,7,5,-5,-3,-1,-14
108,283,69,34,9,327.0,1.0,95,36,7,4,7,5,0,0,0,-14
109,286,69,34,9,330.0,2.0,95,36,7,4,7,5,3,2,0,-14
110,288,69,34,9,333.0,2.0,105,37,7,4,7,5,3,2,0,-14
111,290,69,34,9,336.0,1.0,95,37,7,4,7,5,0,0,0,-14
112,293,71,35,11,339.0,2.0,95,37,9,5,9,6,5,3,1,-13
113,295,69,34,9,342.0,2.0,105,38,7,4,7,5,-5,-3,-1,-14
114,297,69,34,9,345.0,1.0,95,38,7,4,7,5,0,0,0,-14
115,300,69,34,9,348.0,1.0,95,38,7,4,7,5,3,2,0,-14
116,303,71,35,11,351.0,2.0,105,39,9,5,9,6,5,3,1,-13
117,305,71,35,11,354.0,2.0,95,39,9,5,9,6,0,0,0,-13
118,307,71,35,11,357.0,1.0,95,39,9,5,9,6,2,1,0,-13
119,310,74,37,2,360.0,1.0,105,40,12,7,0,1,0,0,1,-12
120,313,81,41,9,363.0,2.0,95,40,19,11,7,5,0,0,1,-11
121,315,73,36,1,366.0,1.0,95,40,11,6,11,7,-1,-1,-1,-12
122,318,74,37,2,369.0,2.0,105,41,12,7,0,1,5,3,1,-11
123,320,78,39,6,372.0,1.0,95,41,16,9,4,3,2,1,1,-10
124,323,78,39,6,375.0,2.0,95,41,16,9,4,3,7,4,0,-10
125,325,74,37,2,378.0,2.0,105,42,12,7,0,1,-7,-4,-1,-11
126,327,81,41,9,381.0,2.0,95,42,19,11,7,5,0,0,1,-10
127,329,73,36,1,384.0,1.0,95,42,11,6,11,7,-1,-1,-1,-11
128,332,71,35,11,387.0,2.0,105,43,9,5,9,6,2,1,-1,-12
129,334,71,35,11,390.0,2.0,95,43,9,5,9,6,0,0,0,-12
130,336,71,35,11,393.0,1.0,95,43,9,5,9,6,2,1,0,-12
131,339,74,37,2,396.0,1.0,105,44,12,7,0,1,0,0,1,-11
132,342,81,41,9,399.0,2.0,95,44,19,11,7,5,0,0,1,-10
133,344,73,36,1,402.0,1.0,95,44,11,6,11,7,-1,-1,-1,-11
134,347,74,37,2,405.0,2.0,105,45,12,7,0,1,5,3,1,-10
135,349,78,39,6,408.0,1.0,95,45,16,9,4,3,2,1,1,-9
136,352,78,39,6,411.0,2.0,95,45,16,9,4,3,7,4,0,-9
137,354,74,37,2,414.0,2.0,105,46,12,7,0,1,-7,-4,-1,-10
138,356,81,41,9,417.0,2.0,95,46,19,11,7,5,0,0,1,-9
139,358,73,36,1,420.0,1.0,95,46,11,6,11,7,-1,-1,-1,-10
140,361,71,35,11,423.0,2.0,105,47,9,5,9,6,2,1,-1,-11
141,363,71,35,11,426.0,2.0,95,47,9,5,9,6,0,0,0,-11
142,365,71,35,11,429.0,1.0,95,47,9,5,9,6,2,1,0,-11
143,368,66,32,6,432.0,2.0,105,48,4,2,4,3,-8,-5,-1,-12
144,370,74,37,2,435.0,1.0,95,48,12,7,0,1,8,5,1,-11
145,373,74,37,2,438.0,2.0,95,48,12,7,0,1,8,5,0,-11
146,375,66,32,6,441.0,1.0,105,49,4,2,4,3,-3,-2,-1,-12
147,378,74,37,2,444.0,2.0,95,49,12,7,0,1,8,5,1,-11
148,380,71,35,11,447.0,1.0,95,49,9,5,9,6,2,1,-1,-12
149,383,66,32,6,450.0,2.0,105,50,4,2,4,3,-8,-5,-1,-13
150,385,74,37,2,453.0,2.0,95,50,12,7,0,1,8,5,1,-12
151,387,74,37,2,456.0,2.0,95,50,12,7,0,1,5,3,0,-12
152,389,71,35,11,459.0,2.0,105,51,9,5,9,6,5,3,-1,-13
153,391,71,35,11,462.0,2.0,95,51,9,5,9,6,0,0,0,-13
154,393,71,35,11,465.0,1.0,95,51,9,5,9,6,2,1,0,-13
155,396,66,32,6,468.0,2.0,105,52,4,2,4,3,-8,-5,-1,-14
156,398,74,37,2,471.0,1.0,95,52,12,7,0,1,8,5,1,-13
157,401,74,37,2,474.0,2.0,95,52,12,7,0,1,8,5,0,-13
158,403,66,32,6,477.0,1.0,105,53,4,2,4,3,-3,-2,-1,-14
159,406,74,37,2,480.0,2.0,95,53,12,7,0,1,8,5,1,-13
160,408,71,35,11,483.0,1.0,95,53,9,5,9,6,2,1,-1,-14
161,411,66,32,6,486.0,2.0,105,54,4,2,4,3,-8,-5,-1,-15
162,413,74,37,2,489.0,2.0,95,54,12,7,0,1,8,5,1,-14
163,415,74,37,2,492.0,2.0,95,54,12,7,0,1,5,3,0,-14
164,417,71,35,11,495.0,2.0,105,55,9,5,9,6,5,3,-1,-15
165,419,71,35,11,498.0,2.0,95,55,9,5,9,6,0,0,0,-15
166,421,71,35,11,501.0,1.0,95,55,9,5,9,6,2,1,0,-15
