,index,midi_note_num,diatonic_note_num,chromatic_pitch_class,onset,duration,velocity,bar_count,relative_chromatic_pitch,relative_diatonic_pitch,chromatic_scale_degree,diatonic_scale_degree,chromatic_interval,diatonic_interval,parsons_code,parsons_cumsum
0,0,62,30,2,0.0,1.0,105,0,0,0,0,1,0,0,0,0
1,4,66,32,6,4.0,1.0,95,0,4,2,4,3,-3,-2,1,1
2,8,65,32,5,8.0,1.0,105,1,3,2,3,3,1,1,-1,0
3,12,64,31,4,12.0,1.0,95,1,2,1,2,2,-1,-1,-1,-1
4,16,60,29,0,16.0,1.0,105,2,-2,-1,10,7,-2,-1,-1,-2
5,20,72,36,0,20.0,1.0,95,2,10,6,10,7,5,3,1,-1
6,24,79,40,7,24.0,1.0,105,3,17,10,5,4,7,4,1,0
7,28,76,38,4,28.0,1.0,95,3,14,8,2,2,-1,-1,-1,-1
8,32,62,30,2,32.0,1.0,105,4,0,0,0,1,-7,-4,-1,-2
9,36,66,32,6,36.0,1.0,95,4,4,2,4,3,-3,-2,1,-1
10,40,65,32,5,40.0,1.0,105,5,3,2,3,3,1,1,-1,-2
11,44,64,31,4,44.0,1.0,95,5,2,1,2,2,-1,-1,-1,-3
12,48,60,29,0,48.0,1.0,105,6,-2,-1,10,7,-2,-1,-1,-4
13,52,72,36,0,52.0,1.0,95,6,10,6,10,7,5,3,1,-3
14,56,64,31,4,56.0,1.0,105,7,2,1,2,2,-3,-2,-1,-4
15,60,62,30,2,60.0,1.0,95,7,0,0,0,1,-2,-1,-1,-5
16,66,62,30,2,64.0,1.0,105,8,0,0,0,1,-2,-1,0,-5
17,70,66,32,6,68.0,1.0,95,8,4,2,4,3,-3,-2,1,-4
18,74,65,32,5,72.0,1.0,105,9,3,2,3,3,1,1,-1,-5
19,78,64,31,4,76.0,1.0,95,9,2,1,2,2,-1,-1,-1,-6
20,82,60,29,0,80.0,1.0,105,10,-2,-1,10,7,-2,-1,-1,-7
21,86,72,36,0,84.0,1.0,95,10,10,6,10,7,5,3,1,-6
22,90,79,40,7,88.0,1.0,105,11,17,10,5,4,7,4,1,-5
23,94,76,38,4,92.0,1.0,95,11,14,8,2,2,-1,-1,-1,-6
24,98,62,30,2,96.0,1.0,105,12,0,0,0,1,-7,-4,-1,-7
25,102,66,32,6,100.0,1.0,95,12,4,2,4,3,-3,-2,1,-6
26,106,65,32,5,104.0,1.0,105,13,3,2,3,3,1,1,-1,-7
27,110,64,31,4,108.0,1.0,95,13,2,1,2,2,-1,-1,-1,-8
28,114,60,29,0,112.0,1.0,105,14,-2,-1,10,7,-2,-1,-1,-9
29,118,72,36,0,116.0,1.0,95,14,10,6,10,7,5,3,1,-8
30,122,64,31,4,120.0,1.0,105,15,2,1,2,2,-3,-2,-1,-9
31,126,62,30,2,124.0,1.0,95,15,0,0,0,1,-2,-1,-1,-10
32,132,62,30,2,128.0,1.0,105,16,0,0,0,1,-2,-1,0,-10
33,136,74,37,2,132.0,1.0,95,16,12,7,0,1,1,1,1,-9
34,142,74,37,2,136.0,1.0,105,17,12,7,0,1,1,1,0,-9
35,146,71,35,11,140.0,1.0,95,17,9,5,9,6,-2,-1,-1,-10
36,150,67,33,7,144.0,1.0,105,18,5,3,5,4,-2,-1,-1,-11
37,156,66,32,6,148.0,1.0,95,18,4,2,4,3,2,1,-1,-12
38,160,62,30,2,152.0,1.0,105,19,0,0,0,1,-2,-1,-1,-13
39,164,62,30,2,156.0,1.0,95,19,0,0,0,1,-2,-1,0,-13
40,168,62,30,2,160.0,1.0,105,20,0,0,0,1,3,2,0,-13
41,172,74,37,2,164.0,1.0,95,20,12,7,0,1,1,1,1,-12
42,178,78,39,6,168.0,1.0,105,21,16,9,4,3,0,0,1,-11
43,182,74,37,2,172.0,1.0,95,21,12,7,0,1,-2,-1,-1,-12
44,186,74,37,2,176.0,1.0,105,22,12,7,0,1,1,1,0,-12
45,192,69,34,9,180.0,1.0,95,22,7,4,7,5,-2,-1,-1,-13
46,198,69,34,9,184.0,1.0,105,23,7,4,7,5,3,2,0,-13
47,202,62,30,2,188.0,1.0,95,23,0,0,0,1,-4,-2,-1,-14
48,208,62,30,2,192.0,1.0,105,24,0,0,0,1,-2,-1,0,-14
49,212,74,37,2,196.0,1.0,95,24,12,7,0,1,1,1,1,-13
50,218,74,37,2,200.0,1.0,105,25,12,7,0,1,1,1,0,-13
51,222,71,35,11,204.0,1.0,95,25,9,5,9,6,-2,-1,-1,-14
52,226,67,33,7,208.0,1.0,105,26,5,3,5,4,-2,-1,-1,-15
53,232,66,32,6,212.0,1.0,95,26,4,2,4,3,2,1,-1,-16
54,236,62,30,2,216.0,1.0,105,27,0,0,0,1,-2,-1,-1,-17
55,240,62,30,2,220.0,1.0,95,27,0,0,0,1,-2,-1,0,-17
56,244,62,30,2,224.0,1.0,105,28,0,0,0,1,3,2,0,-17
57,248,74,37,2,228.0,1.0,95,28,12,7,0,1,1,1,1,-16
58,254,78,39,6,232.0,1.0,105,29,16,9,4,3,0,0,1,-15
59,258,74,37,2,236.0,1.0,95,29,12,7,0,1,-2,-1,-1,-16
60,262,74,37,2,240.0,1.0,105,30,12,7,0,1,1,1,0,-16
61,268,69,34,9,244.0,1.0,95,30,7,4,7,5,-2,-1,-1,-17
62,274,69,34,9,248.0,1.0,105,31,7,4,7,5,3,2,0,-17
63,278,62,30,2,252.0,1.0,95,31,0,0,0,1,-4,-2,-1,-18
64,284,60,29,0,256.0,1.0,105,32,-2,-1,10,7,-4,-2,-1,-19
65,288,69,34,9,260.0,1.0,95,32,7,4,7,5,2,1,1,-18
66,292,59,28,11,264.0,1.0,105,33,-3,-2,9,6,-3,-2,-1,-19
67,296,69,34,9,268.0,1.0,95,33,7,4,7,5,7,4,1,-18
68,300,57,27,9,272.0,1.0,105,34,-5,-3,7,5,-5,-3,-1,-19
69,304,69,34,9,276.0,1.0,95,34,7,4,7,5,7,4,1,-18
70,308,74,37,2,280.0,1.0,105,35,12,7,0,1,12,7,1,-17
71,312,71,35,11,284.0,1.0,95,35,9,5,9,6,9,5,-1,-18
72,316,60,29,0,288.0,1.0,105,36,-2,-1,10,7,-2,-1,-1,-19
73,320,69,34,9,292.0,1.0,95,36,7,4,7,5,2,1,1,-18
74,324,59,28,11,296.0,1.0,105,37,-3,-2,9,6,-3,-2,-1,-19
75,328,69,34,9,300.0,1.0,95,37,7,4,7,5,7,4,1,-18
76,332,57,27,9,304.0,1.0,105,38,-5,-3,7,5,-5,-3,-1,-19
77,337,57,27,9,308.0,1.0,95,38,-5,-3,7,5,-5,-3,0,-19
78,342,64,31,4,312.0,1.0,105,39,2,1,2,2,0,0,1,-18
79,348,73,36,1,316.0,1.0,95,39,11,6,11,7,4,2,1,-17
80,352,74,37,2,320.0,2.0,105,40,12,7,0,1,1,1,1,-16
81,355,85,43,1,324.0,1.0,95,40,23,13,11,7,11,6,1,-15
82,359,81,41,9,328.0,1.0,105,41,19,11,7,5,7,4,-1,-16
83,363,81,41,9,332.0,1.0,95,41,19,11,7,5,-2,-1,0,-16
84,367,71,35,11,336.0,2.0,105,42,9,5,9,6,-3,-2,-1,-17
85,370,83,42,11,340.0,1.0,95,42,21,12,9,6,12,7,1,-16
86,374,79,40,7,344.0,1.0,105,43,17,10,5,4,8,5,-1,-17
87,380,79,40,7,348.0,1.0,95,43,17,10,5,4,-2,-1,0,-17
88,384,69,34,9,352.0,2.0,105,44,7,4,7,5,-5,-3,-1,-18
89,387,79,40,7,356.0,1.0,95,44,17,10,5,4,10,6,1,-17
90,391,78,39,6,360.0,1.0,105,45,16,9,4,3,9,5,-1,-18
91,395,74,37,2,364.0,1.0,95,45,12,7,0,1,-2,-1,-1,-19
92,399,74,37,2,368.0,1.0,105,46,12,7,0,1,1,1,0,-19
93,405,69,34,9,372.0,1.0,95,46,7,4,7,5,-2,-1,-1,-20
94,411,64,31,4,376.0,1.0,105,47,2,1,2,2,-2,-1,-1,-21
95,417,73,36,1,380.0,1.0,95,47,11,6,11,7,4,2,1,-20
96,421,74,37,2,384.0,2.0,105,48,12,7,0,1,1,1,1,-19
97,424,85,43,1,388.0,1.0,95,48,23,13,11,7,11,6,1,-18
98,428,81,41,9,392.0,1.0,105,49,19,11,7,5,7,4,-1,-19
99,432,81,41,9,396.0,1.0,95,49,19,11,7,5,-2,-1,0,-19
100,436,71,35,11,400.0,2.0,105,50,9,5,9,6,-3,-2,-1,-20
101,439,83,42,11,404.0,1.0,95,50,21,12,9,6,12,7,1,-19
102,443,79,40,7,408.0,1.0,105,51,17,10,5,4,8,5,-1,-20
103,449,79,40,7,412.0,1.0,95,51,17,10,5,4,-2,-1,0,-20
104,453,69,34,9,416.0,2.0,105,52,7,4,7,5,-5,-3,-1,-21
105,456,79,40,7,420.0,1.0,95,52,17,10,5,4,10,6,1,-20
106,460,78,39,6,424.0,1.0,105,53,16,9,4,3,9,5,-1,-21
107,464,74,37,2,428.0,1.0,95,53,12,7,0,1,-2,-1,-1,-22
108,468,74,37,2,432.0,1.0,105,54,12,7,0,1,1,1,0,-22
109,474,69,34,9,436.0,1.0,95,54,7,4,7,5,-2,-1,-1,-23
