,index,midi_note_num,diatonic_note_num,chromatic_pitch_class,onset,duration,velocity,bar_count,relative_chromatic_pitch,relative_diatonic_pitch,chromatic_scale_degree,diatonic_scale_degree,chromatic_interval,diatonic_interval,parsons_code,parsons_cumsum
0,0,69,34,9,0.0,1.0,105,0,7,4,7,5,0,0,0,0
1,4,78,39,6,4.0,1.0,95,0,16,9,4,3,-1,-1,1,1
2,8,69,34,9,8.0,1.0,105,1,7,4,7,5,-4,-2,-1,0
3,12,79,40,7,12.0,1.0,95,1,17,10,5,4,0,0,1,1
4,16,69,34,9,16.0,1.0,105,2,7,4,7,5,-2,-1,-1,0
5,20,78,39,6,20.0,1.0,95,2,16,9,4,3,-1,-1,1,1
6,24,79,40,7,24.0,1.0,105,3,17,10,5,4,1,1,1,2
7,30,74,37,2,28.0,1.0,95,3,12,7,0,1,-2,-1,-1,1
8,34,69,34,9,32.0,1.0,105,4,7,4,7,5,-2,-1,-1,0
9,38,78,39,6,36.0,1.0,95,4,16,9,4,3,-1,-1,1,1
10,42,69,34,9,40.0,1.0,105,5,7,4,7,5,-4,-2,-1,0
11,46,79,40,7,44.0,1.0,95,5,17,10,5,4,0,0,1,1
12,50,69,34,9,48.0,1.0,105,6,7,4,7,5,-2,-1,-1,0
13,54,78,39,6,52.0,1.0,95,6,16,9,4,3,-1,-1,1,1
14,58,79,40,7,56.0,1.0,105,7,17,10,5,4,1,1,1,2
15,64,74,37,2,60.0,1.0,95,7,12,7,0,1,-2,-1,-1,1
16,68,69,34,9,64.0,1.0,105,8,7,4,7,5,-2,-1,-1,0
17,73,78,39,6,68.0,1.0,95,8,16,9,4,3,-3,-2,1,1
18,77,69,34,9,72.0,1.0,105,9,7,4,7,5,-4,-2,-1,0
19,82,67,33,7,76.0,1.0,95,9,5,3,5,4,-14,-8,-1,-1
20,87,69,34,9,80.0,1.0,105,10,7,4,7,5,-2,-1,1,0
21,92,78,39,6,84.0,1.0,95,10,16,9,4,3,-3,-2,1,1
22,96,79,40,7,88.0,1.0,105,11,17,10,5,4,1,1,1,2
23,102,74,37,2,92.0,1.0,95,11,12,7,0,1,-2,-1,-1,1
24,106,69,34,9,96.0,1.0,105,12,7,4,7,5,-2,-1,-1,0
25,111,78,39,6,100.0,1.0,95,12,16,9,4,3,-3,-2,1,1
26,115,69,34,9,104.0,1.0,105,13,7,4,7,5,-4,-2,-1,0
27,120,67,33,7,108.0,1.0,95,13,5,3,5,4,-14,-8,-1,-1
28,125,69,34,9,112.0,1.0,105,14,7,4,7,5,-2,-1,1,0
29,130,78,39,6,116.0,1.0,95,14,16,9,4,3,-3,-2,1,1
30,134,79,40,7,120.0,1.0,105,15,17,10,5,4,1,1,1,2
31,140,74,37,2,124.0,1.0,95,15,12,7,0,1,-2,-1,-1,1
32,144,69,34,9,128.0,1.0,105,16,7,4,7,5,-2,-1,-1,0
33,148,78,39,6,132.0,1.0,95,16,16,9,4,3,-1,-1,1,1
34,152,69,34,9,136.0,1.0,105,17,7,4,7,5,-4,-2,-1,0
35,156,71,35,11,140.0,1.0,95,17,9,5,9,6,-8,-5,1,1
36,160,69,34,9,144.0,1.0,105,18,7,4,7,5,-2,-1,-1,0
37,164,78,39,6,148.0,1.0,95,18,16,9,4,3,-1,-1,1,1
38,168,79,40,7,152.0,1.0,105,19,17,10,5,4,1,1,1,2
39,172,71,35,11,156.0,1.0,95,19,9,5,9,6,-8,-5,-1,1
40,176,69,34,9,160.0,1.0,105,20,7,4,7,5,-2,-1,-1,0
41,180,78,39,6,164.0,1.0,95,20,16,9,4,3,-1,-1,1,1
42,184,69,34,9,168.0,1.0,105,21,7,4,7,5,-4,-2,-1,0
43,188,71,35,11,172.0,1.0,95,21,9,5,9,6,-8,-5,1,1
44,192,69,34,9,176.0,1.0,105,22,7,4,7,5,-2,-1,-1,0
45,196,78,39,6,180.0,1.0,95,22,16,9,4,3,-1,-1,1,1
46,200,79,40,7,184.0,1.0,105,23,17,10,5,4,1,1,1,2
47,204,71,35,11,188.0,1.0,95,23,9,5,9,6,-8,-5,-1,1
48,208,69,34,9,192.0,1.0,105,24,7,4,7,5,-2,-1,-1,0
49,213,78,39,6,196.0,1.0,95,24,16,9,4,3,-3,-2,1,1
50,217,69,34,9,200.0,1.0,105,25,7,4,7,5,-4,-2,-1,0
51,222,71,35,11,204.0,1.0,95,25,9,5,9,6,-10,-6,1,1
52,226,69,34,9,208.0,1.0,105,26,7,4,7,5,-2,-1,-1,0
53,231,78,39,6,212.0,1.0,95,26,16,9,4,3,-3,-2,1,1
54,235,79,40,7,216.0,1.0,105,27,17,10,5,4,1,1,1,2
55,239,71,35,11,220.0,1.0,95,27,9,5,9,6,-8,-5,-1,1
56,243,69,34,9,224.0,1.0,105,28,7,4,7,5,-2,-1,-1,0
57,248,78,39,6,228.0,1.0,95,28,16,9,4,3,-3,-2,1,1
58,252,69,34,9,232.0,1.0,105,29,7,4,7,5,-4,-2,-1,0
59,257,71,35,11,236.0,1.0,95,29,9,5,9,6,-10,-6,1,1
60,261,69,34,9,240.0,1.0,105,30,7,4,7,5,-2,-1,-1,0
61,266,78,39,6,244.0,1.0,95,30,16,9,4,3,-3,-2,1,1
62,270,79,40,7,248.0,1.0,105,31,17,10,5,4,1,1,1,2
63,274,71,35,11,252.0,1.0,95,31,9,5,9,6,-8,-5,-1,1
64,278,69,34,9,256.0,1.0,105,32,7,4,7,5,-2,-1,-1,0
65,282,78,39,6,260.0,1.0,95,32,16,9,4,3,-1,-1,1,1
66,286,69,34,9,264.0,1.0,105,33,7,4,7,5,-4,-2,-1,0
67,290,79,40,7,268.0,1.0,95,33,17,10,5,4,1,1,1,1
68,296,69,34,9,272.0,1.0,105,34,7,4,7,5,-2,-1,-1,0
69,300,78,39,6,276.0,1.0,95,34,16,9,4,3,-1,-1,1,1
70,304,79,40,7,280.0,1.0,105,35,17,10,5,4,1,1,1,2
71,308,71,35,11,284.0,1.0,95,35,9,5,9,6,-8,-5,-1,1
72,314,69,34,9,288.0,1.0,105,36,7,4,7,5,-2,-1,-1,0
73,318,78,39,6,292.0,1.0,95,36,16,9,4,3,-1,-1,1,1
74,322,69,34,9,296.0,1.0,105,37,7,4,7,5,-4,-2,-1,0
75,326,79,40,7,300.0,1.0,95,37,17,10,5,4,1,1,1,1
76,332,69,34,9,304.0,1.0,105,38,7,4,7,5,-2,-1,-1,0
77,336,78,39,6,308.0,1.0,95,38,16,9,4,3,-1,-1,1,1
78,340,79,40,7,312.0,1.0,105,39,17,10,5,4,1,1,1,2
79,344,71,35,11,316.0,1.0,95,39,9,5,9,6,-8,-5,-1,1
80,350,69,34,9,320.0,1.0,105,40,7,4,7,5,-2,-1,-1,0
81,355,78,39,6,324.0,1.0,95,40,16,9,4,3,-3,-2,1,1
82,359,69,34,9,328.0,1.0,105,41,7,4,7,5,-4,-2,-1,0
83,364,71,35,11,332.0,1.0,95,41,9,5,9,6,-10,-6,1,1
84,368,69,34,9,336.0,1.0,105,42,7,4,7,5,-2,-1,-1,0
85,373,78,39,6,340.0,1.0,95,42,16,9,4,3,-3,-2,1,1
86,377,79,40,7,344.0,1.0,105,43,17,10,5,4,1,1,1,2
87,381,71,35,11,348.0,1.0,95,43,9,5,9,6,-8,-5,-1,1
88,387,69,34,9,352.0,1.0,105,44,7,4,7,5,-2,-1,-1,0
89,392,78,39,6,356.0,1.0,95,44,16,9,4,3,-3,-2,1,1
90,396,69,34,9,360.0,1.0,105,45,7,4,7,5,-4,-2,-1,0
91,401,71,35,11,364.0,1.0,95,45,9,5,9,6,-10,-6,1,1
92,405,69,34,9,368.0,1.0,105,46,7,4,7,5,-2,-1,-1,0
93,410,78,39,6,372.0,1.0,95,46,16,9,4,3,-3,-2,1,1
94,414,79,40,7,376.0,1.0,105,47,17,10,5,4,1,1,1,2
95,418,71,35,11,380.0,1.0,95,47,9,5,9,6,-8,-5,-1,1
