,index,midi_note_num,diatonic_note_num,chromatic_pitch_class,onset,duration,velocity,bar_count,relative_chromatic_pitch,relative_diatonic_pitch,chromatic_scale_degree,diatonic_scale_degree,chromatic_interval,diatonic_interval,parsons_code,parsons_cumsum
0,2,74,37,2,2.0,1.5,105,0,12,7,0,1,0,0,0,0
1,6,69,34,9,6.0,1.5,95,0,7,4,7,5,-4,-2,-1,-1
2,10,81,41,9,10.0,1.0,105,1,19,11,7,5,12,7,1,0
3,12,76,38,4,14.0,2.0,95,1,14,8,2,2,0,0,-1,-1
4,16,79,40,7,18.0,1.0,105,2,17,10,5,4,1,1,1,0
5,19,67,33,7,22.0,2.0,95,2,5,3,5,4,-2,-1,-1,-1
6,23,79,40,7,26.0,1.0,105,3,17,10,5,4,12,7,1,0
7,25,74,37,2,30.0,2.0,95,3,12,7,0,1,0,0,-1,-1
8,28,74,37,2,34.0,1.5,105,4,12,7,0,1,1,1,0,-1
9,32,69,34,9,38.0,1.5,95,4,7,4,7,5,-4,-2,-1,-2
10,36,81,41,9,42.0,1.0,105,5,19,11,7,5,12,7,1,-1
11,38,76,38,4,46.0,2.0,95,5,14,8,2,2,0,0,-1,-2
12,40,79,40,7,50.0,1.5,105,6,17,10,5,4,-2,-1,1,-1
13,44,67,33,7,54.0,1.5,95,6,5,3,5,4,-4,-2,-1,-2
14,48,76,38,4,58.0,2.0,105,7,14,8,2,2,5,3,1,-1
15,50,69,34,9,62.0,2.0,95,7,7,4,7,5,0,0,-1,-2
16,53,74,37,2,66.0,1.5,105,8,12,7,0,1,1,1,1,-1
17,57,69,34,9,70.0,1.5,95,8,7,4,7,5,-4,-2,-1,-2
18,61,81,41,9,74.0,1.0,105,9,19,11,7,5,12,7,1,-1
19,63,76,38,4,78.0,2.0,95,9,14,8,2,2,0,0,-1,-2
20,67,79,40,7,82.0,1.0,105,10,17,10,5,4,1,1,1,-1
21,70,67,33,7,86.0,2.0,95,10,5,3,5,4,-2,-1,-1,-2
22,74,79,40,7,90.0,1.0,105,11,17,10,5,4,12,7,1,-1
23,76,74,37,2,94.0,2.0,95,11,12,7,0,1,0,0,-1,-2
24,79,74,37,2,98.0,1.5,105,12,12,7,0,1,1,1,0,-2
25,83,69,34,9,102.0,1.5,95,12,7,4,7,5,-4,-2,-1,-3
26,87,81,41,9,106.0,1.0,105,13,19,11,7,5,12,7,1,-2
27,89,76,38,4,110.0,2.0,95,13,14,8,2,2,0,0,-1,-3
28,91,79,40,7,114.0,1.5,105,14,17,10,5,4,-2,-1,1,-2
29,95,67,33,7,118.0,1.5,95,14,5,3,5,4,-4,-2,-1,-3
30,99,76,38,4,122.0,2.0,105,15,14,8,2,2,5,3,1,-2
31,101,69,34,9,126.0,2.0,95,15,7,4,7,5,0,0,-1,-3
32,105,81,41,9,130.0,1.5,105,16,19,11,7,5,1,1,1,-2
33,109,81,41,9,134.0,1.5,95,16,19,11,7,5,5,3,0,-2
34,113,81,41,9,138.0,1.0,105,17,19,11,7,5,5,3,0,-2
35,115,76,38,4,142.0,2.0,95,17,14,8,2,2,0,0,-1,-3
36,117,79,40,7,146.0,1.5,105,18,17,10,5,4,1,1,1,-2
37,121,79,40,7,150.0,1.5,95,18,17,10,5,4,1,1,0,-2
38,125,74,37,2,154.0,1.5,105,19,12,7,0,1,-2,-1,-1,-3
39,129,67,33,7,158.0,1.5,95,19,5,3,5,4,-2,-1,-1,-4
40,133,73,36,1,162.0,0.67,105,20,11,6,11,7,4,2,1,-3
41,138,73,36,1,166.0,0.67,95,20,11,6,11,7,4,2,0,-3
42,143,81,41,9,170.0,1.0,105,21,19,11,7,5,12,7,1,-2
43,145,76,38,4,174.0,1.0,95,21,14,8,2,2,0,0,-1,-3
44,147,79,40,7,178.0,1.5,105,22,17,10,5,4,-2,-1,1,-2
45,151,67,33,7,182.0,1.5,95,22,5,3,5,4,-4,-2,-1,-3
46,155,76,38,4,186.0,1.0,105,23,14,8,2,2,5,3,1,-2
47,157,69,34,9,190.0,2.0,95,23,7,4,7,5,0,0,-1,-3
48,161,81,41,9,194.0,1.5,105,24,19,11,7,5,1,1,1,-2
49,165,81,41,9,198.0,1.5,95,24,19,11,7,5,5,3,0,-2
50,169,81,41,9,202.0,1.0,105,25,19,11,7,5,5,3,0,-2
51,171,76,38,4,206.0,2.0,95,25,14,8,2,2,0,0,-1,-3
52,173,79,40,7,210.0,1.5,105,26,17,10,5,4,1,1,1,-2
53,177,79,40,7,214.0,1.5,95,26,17,10,5,4,1,1,0,-2
54,181,74,37,2,218.0,1.5,105,27,12,7,0,1,-2,-1,-1,-3
55,185,67,33,7,222.0,1.5,95,27,5,3,5,4,-2,-1,-1,-4
56,189,73,36,1,226.0,0.67,105,28,11,6,11,7,4,2,1,-3
57,194,73,36,1,230.0,0.67,95,28,11,6,11,7,4,2,0,-3
58,199,81,41,9,234.0,1.0,105,29,19,11,7,5,12,7,1,-2
59,201,76,38,4,238.0,1.0,95,29,14,8,2,2,0,0,-1,-3
60,203,79,40,7,242.0,1.5,105,30,17,10,5,4,-2,-1,1,-2
61,207,67,33,7,246.0,1.5,95,30,5,3,5,4,-4,-2,-1,-3
62,211,76,38,4,250.0,1.0,105,31,14,8,2,2,5,3,1,-2
63,213,69,34,9,254.0,2.0,95,31,7,4,7,5,0,0,-1,-3
64,216,74,37,2,258.0,1.5,105,32,12,7,0,1,1,1,1,-2
65,220,69,34,9,262.0,1.5,95,32,7,4,7,5,-4,-2,-1,-3
66,224,81,41,9,266.0,1.0,105,33,19,11,7,5,12,7,1,-2
67,226,76,38,4,270.0,2.0,95,33,14,8,2,2,0,0,-1,-3
68,230,79,40,7,274.0,1.0,105,34,17,10,5,4,1,1,1,-2
69,233,67,33,7,278.0,2.0,95,34,5,3,5,4,-2,-1,-1,-3
70,237,79,40,7,282.0,1.0,105,35,17,10,5,4,12,7,1,-2
71,239,74,37,2,286.0,2.0,95,35,12,7,0,1,0,0,-1,-3
72,242,74,37,2,290.0,1.5,105,36,12,7,0,1,1,1,0,-3
73,246,69,34,9,294.0,1.5,95,36,7,4,7,5,-4,-2,-1,-4
74,250,81,41,9,298.0,1.0,105,37,19,11,7,5,12,7,1,-3
75,252,76,38,4,302.0,2.0,95,37,14,8,2,2,0,0,-1,-4
76,254,79,40,7,306.0,1.5,105,38,17,10,5,4,-2,-1,1,-3
77,258,67,33,7,310.0,1.5,95,38,5,3,5,4,-4,-2,-1,-4
78,262,76,38,4,314.0,1.0,105,39,14,8,2,2,5,3,1,-3
79,264,69,34,9,318.0,2.0,95,39,7,4,7,5,0,0,-1,-4
80,267,74,37,2,322.0,1.5,105,40,12,7,0,1,1,1,1,-3
81,271,69,34,9,326.0,1.5,95,40,7,4,7,5,-4,-2,-1,-4
82,275,81,41,9,330.0,1.0,105,41,19,11,7,5,12,7,1,-3
83,277,76,38,4,334.0,2.0,95,41,14,8,2,2,0,0,-1,-4
84,281,79,40,7,338.0,1.0,105,42,17,10,5,4,1,1,1,-3
85,284,67,33,7,342.0,2.0,95,42,5,3,5,4,-2,-1,-1,-4
86,288,79,40,7,346.0,1.0,105,43,17,10,5,4,12,7,1,-3
87,290,74,37,2,350.0,2.0,95,43,12,7,0,1,0,0,-1,-4
88,293,74,37,2,354.0,1.5,105,44,12,7,0,1,1,1,0,-4
89,297,69,34,9,358.0,1.5,95,44,7,4,7,5,-4,-2,-1,-5
90,301,81,41,9,362.0,1.0,105,45,19,11,7,5,12,7,1,-4
91,303,76,38,4,366.0,2.0,95,45,14,8,2,2,0,0,-1,-5
92,305,79,40,7,370.0,1.5,105,46,17,10,5,4,-2,-1,1,-4
93,309,67,33,7,374.0,1.5,95,46,5,3,5,4,-4,-2,-1,-5
94,313,76,38,4,378.0,1.0,105,47,14,8,2,2,5,3,1,-4
95,315,69,34,9,382.0,2.0,95,47,7,4,7,5,0,0,-1,-5
96,318,69,34,9,386.0,0.67,105,48,7,4,7,5,-2,-1,0,-5
97,322,81,41,9,390.0,0.5,95,48,19,11,7,5,0,0,1,-4
98,327,69,34,9,394.0,0.67,105,49,7,4,7,5,-12,-7,-1,-5
99,332,76,38,4,398.0,2.0,95,49,14,8,2,2,-4,-2,1,-4
100,335,67,33,7,402.0,0.67,105,50,5,3,5,4,-12,-7,-1,-5
101,339,79,40,7,406.0,0.5,95,50,17,10,5,4,0,0,1,-4
102,344,67,33,7,410.0,0.67,105,51,5,3,5,4,-12,-7,-1,-5
103,349,74,37,2,414.0,2.0,95,51,12,7,0,1,-2,-1,1,-4
104,352,69,34,9,418.0,0.67,105,52,7,4,7,5,2,1,-1,-5
105,356,81,41,9,422.0,0.5,95,52,19,11,7,5,0,0,1,-4
106,361,69,34,9,426.0,0.67,105,53,7,4,7,5,-12,-7,-1,-5
107,366,76,38,4,430.0,2.0,95,53,14,8,2,2,-4,-2,1,-4
108,369,76,38,4,434.0,1.5,105,54,14,8,2,2,-3,-2,0,-4
109,373,67,33,7,438.0,1.5,95,54,5,3,5,4,-7,-4,-1,-5
110,377,76,38,4,442.0,1.0,105,55,14,8,2,2,5,3,1,-4
111,379,69,34,9,446.0,2.0,95,55,7,4,7,5,0,0,-1,-5
112,382,69,34,9,450.0,0.67,105,56,7,4,7,5,-2,-1,0,-5
113,386,81,41,9,454.0,0.5,95,56,19,11,7,5,0,0,1,-4
114,391,69,34,9,458.0,0.67,105,57,7,4,7,5,-12,-7,-1,-5
115,396,76,38,4,462.0,2.0,95,57,14,8,2,2,-4,-2,1,-4
116,399,67,33,7,466.0,0.67,105,58,5,3,5,4,-12,-7,-1,-5
117,403,79,40,7,470.0,0.5,95,58,17,10,5,4,0,0,1,-4
118,408,67,33,7,474.0,0.67,105,59,5,3,5,4,-12,-7,-1,-5
119,413,74,37,2,478.0,2.0,95,59,12,7,0,1,-2,-1,1,-4
120,416,69,34,9,482.0,0.67,105,60,7,4,7,5,2,1,-1,-5
121,420,81,41,9,486.0,0.5,95,60,19,11,7,5,0,0,1,-4
122,425,69,34,9,490.0,0.67,105,61,7,4,7,5,-12,-7,-1,-5
123,430,76,38,4,494.0,2.0,95,61,14,8,2,2,-4,-2,1,-4
124,433,76,38,4,498.0,1.5,105,62,14,8,2,2,-3,-2,0,-4
125,437,67,33,7,502.0,1.5,95,62,5,3,5,4,-7,-4,-1,-5
126,441,76,38,4,506.0,1.0,105,63,14,8,2,2,5,3,1,-4
127,443,69,34,9,510.0,2.0,95,63,7,4,7,5,0,0,-1,-5
