,index,midi_note_num,diatonic_note_num,chromatic_pitch_class,onset,duration,velocity,bar_count,relative_chromatic_pitch,relative_diatonic_pitch,chromatic_scale_degree,diatonic_scale_degree,chromatic_interval,diatonic_interval,parsons_code,parsons_cumsum
0,0,62,30,2,0.0,1.0,105,0,-5,-3,7,5,0,0,0,0
1,4,69,34,9,4.0,1.0,95,0,2,1,2,2,0,0,1,1
2,8,67,33,7,8.0,1.0,105,1,0,0,0,1,1,1,-1,0
3,12,74,37,2,12.0,1.0,95,1,7,4,7,5,10,6,1,1
4,16,62,30,2,16.0,1.0,105,2,-5,-3,7,5,-2,-1,-1,0
5,20,69,34,9,20.0,1.0,95,2,2,1,2,2,0,0,1,1
6,24,69,34,9,24.0,1.0,105,3,2,1,2,2,2,1,0,1
7,28,64,31,4,28.0,1.0,95,3,-3,-2,9,6,-3,-2,-1,0
8,31,62,30,2,32.0,1.0,105,4,-5,-3,7,5,0,0,-1,-1
9,35,69,34,9,36.0,1.0,95,4,2,1,2,2,0,0,1,0
10,39,67,33,7,40.0,1.0,105,5,0,0,0,1,1,1,-1,-1
11,44,72,36,0,44.0,1.0,95,5,5,3,5,4,8,5,1,0
12,49,62,30,2,48.0,1.0,105,6,-5,-3,7,5,-2,-1,-1,-1
13,53,69,34,9,52.0,1.0,95,6,2,1,2,2,0,0,1,0
14,57,69,34,9,56.0,1.0,105,7,2,1,2,2,2,1,0,0
15,61,64,31,4,60.0,1.0,95,7,-3,-2,9,6,-3,-2,-1,-1
16,64,62,30,2,64.0,1.0,105,8,-5,-3,7,5,0,0,-1,-2
17,68,69,34,9,68.0,1.0,95,8,2,1,2,2,0,0,1,-1
18,72,67,33,7,72.0,1.0,105,9,0,0,0,1,1,1,-1,-2
19,76,74,37,2,76.0,1.0,95,9,7,4,7,5,10,6,1,-1
20,80,62,30,2,80.0,1.0,105,10,-5,-3,7,5,-2,-1,-1,-2
21,84,69,34,9,84.0,1.0,95,10,2,1,2,2,0,0,1,-1
22,88,72,36,0,88.0,2.0,105,11,5,3,5,4,5,3,1,0
23,91,64,31,4,92.0,1.0,95,11,-3,-2,9,6,-3,-2,-1,-1
24,95,62,30,2,96.0,3.0,105,12,-5,-3,7,5,-2,-1,-1,-2
25,97,69,34,9,100.0,1.0,95,12,2,1,2,2,0,0,1,-1
26,101,67,33,7,104.0,0.5,105,13,0,0,0,1,1,1,-1,-2
27,106,74,37,2,108.0,1.0,95,13,7,4,7,5,10,6,1,-1
28,110,62,30,2,112.0,1.0,105,14,-5,-3,7,5,-2,-1,-1,-2
29,114,69,34,9,116.0,1.0,95,14,2,1,2,2,0,0,1,-1
30,118,69,34,9,120.0,1.0,105,15,2,1,2,2,2,1,0,-1
31,122,64,31,4,124.0,1.0,95,15,-3,-2,9,6,-3,-2,-1,-2
32,126,74,37,2,128.0,3.0,105,16,7,4,7,5,5,3,1,-1
33,128,75,38,3,132.0,1.0,95,16,8,5,8,6,6,4,1,0
34,132,72,36,0,136.0,3.0,105,17,5,3,5,4,3,2,-1,-1
35,134,74,37,2,140.0,1.0,95,17,7,4,7,5,5,3,1,0
36,138,74,37,2,144.0,3.0,105,18,7,4,7,5,5,3,0,0
37,140,75,38,3,148.0,1.0,95,18,8,5,8,6,6,4,1,1
38,144,76,38,4,152.0,1.0,105,19,9,5,9,6,7,4,1,2
39,148,76,38,4,156.0,1.0,95,19,9,5,9,6,-3,-2,0,2
40,153,75,38,3,160.0,1.0,105,20,8,5,8,6,6,4,-1,1
41,157,75,38,3,164.0,1.0,95,20,8,5,8,6,6,4,0,1
42,161,72,36,0,168.0,2.0,105,21,5,3,5,4,3,2,-1,0
43,164,74,37,2,172.0,1.0,95,21,7,4,7,5,5,3,1,1
44,168,67,33,7,176.0,1.0,105,22,0,0,0,1,-2,-1,-1,0
45,172,79,40,7,180.0,0.5,95,22,12,7,0,1,5,3,1,1
46,177,69,34,9,184.0,1.0,105,23,2,1,2,2,-3,-2,-1,0
47,181,64,31,4,188.0,1.0,95,23,-3,-2,9,6,-3,-2,-1,-1
48,185,78,39,6,192.0,1.0,105,24,11,6,11,7,14,8,1,0
49,189,78,39,6,196.0,1.0,95,24,11,6,11,7,-1,-1,0,0
50,193,76,38,4,200.0,1.0,105,25,9,5,9,6,-2,-1,-1,-1
51,197,76,38,4,204.0,1.0,95,25,9,5,9,6,-2,-1,0,-1
52,201,78,39,6,208.0,1.0,105,26,11,6,11,7,-1,-1,1,0
53,205,78,39,6,212.0,1.0,95,26,11,6,11,7,-1,-1,0,0
54,209,76,38,4,216.0,1.0,105,27,9,5,9,6,-2,-1,-1,-1
55,213,76,38,4,220.0,1.0,95,27,9,5,9,6,-3,-2,0,-1
56,218,78,39,6,224.0,1.0,105,28,11,6,11,7,-3,-2,1,0
57,222,78,39,6,228.0,1.0,95,28,11,6,11,7,-1,-1,0,0
58,226,76,38,4,232.0,1.0,105,29,9,5,9,6,-2,-1,-1,-1
59,230,79,40,7,236.0,0.5,95,29,12,7,0,1,1,1,1,0
60,235,67,33,7,240.0,1.0,105,30,0,0,0,1,-2,-1,-1,-1
61,239,79,40,7,244.0,0.5,95,30,12,7,0,1,5,3,1,0
62,244,69,34,9,248.0,2.0,105,31,2,1,2,2,-3,-2,-1,-1
63,247,64,31,4,252.0,1.0,95,31,-3,-2,9,6,-3,-2,-1,-2
64,251,74,37,2,256.0,3.0,105,32,7,4,7,5,10,6,1,-1
65,253,74,37,2,260.0,1.0,95,32,7,4,7,5,-2,-1,0,-1
66,257,72,36,0,264.0,1.0,105,33,5,3,5,4,1,1,-1,-2
67,261,72,36,0,268.0,1.0,95,33,5,3,5,4,1,1,0,-2
68,265,69,34,9,272.0,1.0,105,34,2,1,2,2,5,3,-1,-3
69,269,69,34,9,276.0,1.0,95,34,2,1,2,2,-3,-2,0,-3
70,272,76,38,4,280.0,1.0,105,35,9,5,9,6,2,1,1,-2
71,276,76,38,4,284.0,1.0,95,35,9,5,9,6,-3,-2,0,-2
72,281,75,38,3,288.0,1.0,105,36,8,5,8,6,6,4,-1,-3
73,285,74,37,2,292.0,1.0,95,36,7,4,7,5,-2,-1,-1,-4
74,289,72,36,0,296.0,1.0,105,37,5,3,5,4,1,1,-1,-5
75,293,72,36,0,300.0,1.0,95,37,5,3,5,4,1,1,0,-5
76,297,62,30,2,304.0,2.0,105,38,-5,-3,7,5,-2,-1,-1,-6
77,301,69,34,9,308.0,2.0,95,38,2,1,2,2,2,1,1,-5
78,304,69,34,9,312.0,1.0,105,39,2,1,2,2,5,3,0,-5
79,308,64,31,4,316.0,1.0,95,39,-3,-2,9,6,-5,-3,-1,-6
