,index,midi_note_num,diatonic_note_num,chromatic_pitch_class,onset,duration,velocity,bar_count,relative_chromatic_pitch,relative_diatonic_pitch,chromatic_scale_degree,diatonic_scale_degree,chromatic_interval,diatonic_interval,parsons_code,parsons_cumsum
0,1,67,33,7,1.0,2.0,105,0,0,0,0,1,0,0,0,0
1,3,71,35,11,4.0,1.0,95,0,4,2,4,3,4,2,1,1
2,6,67,33,7,7.0,1.0,95,0,0,0,0,1,0,0,-1,0
3,9,67,33,7,10.0,2.0,105,1,0,0,0,1,5,3,0,0
4,11,71,35,11,13.0,1.0,95,1,4,2,4,3,4,2,1,1
5,14,69,34,9,16.0,2.0,95,1,2,1,2,2,2,1,-1,0
6,16,67,33,7,19.0,2.0,105,2,0,0,0,1,5,3,-1,-1
7,18,71,35,11,22.0,1.0,95,2,4,2,4,3,4,2,1,0
8,21,71,35,11,25.0,1.0,95,2,4,2,4,3,4,2,0,0
9,24,76,38,4,28.0,1.0,105,3,9,5,9,6,2,1,1,1
10,27,69,34,9,31.0,1.0,95,3,2,1,2,2,-2,-1,-1,0
11,30,67,33,7,34.0,2.0,95,3,0,0,0,1,5,3,-1,-1
12,32,67,33,7,37.0,2.0,105,4,0,0,0,1,5,3,0,-1
13,34,71,35,11,40.0,1.0,95,4,4,2,4,3,4,2,1,0
14,37,67,33,7,43.0,1.0,95,4,0,0,0,1,0,0,-1,-1
15,40,67,33,7,46.0,2.0,105,5,0,0,0,1,5,3,0,-1
16,42,71,35,11,49.0,1.0,95,5,4,2,4,3,4,2,1,0
17,45,69,34,9,52.0,2.0,95,5,2,1,2,2,2,1,-1,-1
18,47,67,33,7,55.0,2.0,105,6,0,0,0,1,5,3,-1,-2
19,49,71,35,11,58.0,1.0,95,6,4,2,4,3,4,2,1,-1
20,52,71,35,11,61.0,1.0,95,6,4,2,4,3,4,2,0,-1
21,55,76,38,4,64.0,1.0,105,7,9,5,9,6,2,1,1,0
22,58,69,34,9,67.0,1.0,95,7,2,1,2,2,-2,-1,-1,-1
23,61,67,33,7,70.0,2.0,95,7,0,0,0,1,5,3,-1,-2
24,63,76,38,4,73.0,2.0,105,8,9,5,9,6,2,1,1,-1
25,65,74,37,2,76.0,1.0,95,8,7,4,7,5,0,0,-1,-2
26,68,71,35,11,79.0,0.5,95,8,4,2,4,3,4,2,-1,-3
27,72,76,38,4,82.0,2.0,105,9,9,5,9,6,9,5,1,-2
28,74,74,37,2,85.0,1.0,95,9,7,4,7,5,0,0,-1,-3
29,77,69,34,9,88.0,2.0,95,9,2,1,2,2,2,1,-1,-4
30,79,76,38,4,91.0,2.0,105,10,9,5,9,6,2,1,1,-3
31,81,74,37,2,94.0,1.0,95,10,7,4,7,5,0,0,-1,-4
32,84,71,35,11,97.0,1.0,95,10,4,2,4,3,4,2,-1,-5
33,87,67,33,7,100.0,1.0,105,11,0,0,0,1,5,3,-1,-6
34,90,71,35,11,103.0,1.0,95,11,4,2,4,3,4,2,1,-5
35,93,67,33,7,106.0,2.0,95,11,0,0,0,1,1,1,-1,-6
36,95,76,38,4,109.0,2.0,105,12,9,5,9,6,2,1,1,-5
37,97,74,37,2,112.0,1.0,95,12,7,4,7,5,0,0,-1,-6
38,100,71,35,11,115.0,0.5,95,12,4,2,4,3,4,2,-1,-7
39,104,76,38,4,118.0,1.0,105,13,9,5,9,6,9,5,1,-6
40,107,74,37,2,121.0,1.0,95,13,7,4,7,5,0,0,-1,-7
41,110,69,34,9,124.0,2.0,95,13,2,1,2,2,2,1,-1,-8
42,113,79,40,7,127.0,1.0,105,14,12,7,0,1,1,1,1,-7
43,116,74,37,2,130.0,1.0,95,14,7,4,7,5,-2,-1,-1,-8
44,119,72,36,0,133.0,1.0,95,14,5,3,5,4,5,3,-1,-9
45,122,71,35,11,136.0,1.0,95,14,4,2,4,3,2,1,-1,-10
46,125,67,33,7,139.0,2.0,105,15,0,0,0,1,5,3,-1,-11
47,127,71,35,11,142.0,1.5,95,15,4,2,4,3,4,2,1,-10
48,130,67,33,7,145.0,2.0,95,15,0,0,0,1,1,1,-1,-11
49,132,72,36,0,148.0,2.0,105,16,5,3,5,4,5,3,1,-10
50,134,76,38,4,151.0,1.0,95,16,9,5,9,6,4,2,1,-9
51,137,76,38,4,154.0,1.0,95,16,9,5,9,6,4,2,0,-9
52,140,72,36,0,157.0,2.0,105,17,5,3,5,4,5,3,-1,-10
53,142,76,38,4,160.0,1.0,95,17,9,5,9,6,4,2,1,-9
54,145,74,37,2,163.0,2.0,95,17,7,4,7,5,2,1,-1,-10
55,147,72,36,0,166.0,2.0,105,18,5,3,5,4,5,3,-1,-11
56,149,76,38,4,169.0,1.0,95,18,9,5,9,6,4,2,1,-10
57,152,76,38,4,172.0,1.0,95,18,9,5,9,6,4,2,0,-10
58,155,81,41,9,175.0,1.0,105,19,14,8,2,2,2,1,1,-9
59,158,74,37,2,178.0,1.0,95,19,7,4,7,5,-2,-1,-1,-10
60,161,72,36,0,181.0,2.0,95,19,5,3,5,4,5,3,-1,-11
61,163,72,36,0,184.0,2.0,105,20,5,3,5,4,5,3,0,-11
62,165,76,38,4,187.0,1.0,95,20,9,5,9,6,4,2,1,-10
63,168,76,38,4,190.0,1.0,95,20,9,5,9,6,4,2,0,-10
64,171,72,36,0,193.0,2.0,105,21,5,3,5,4,5,3,-1,-11
65,173,76,38,4,196.0,1.0,95,21,9,5,9,6,4,2,1,-10
66,176,74,37,2,199.0,2.0,95,21,7,4,7,5,2,1,-1,-11
67,178,72,36,0,202.0,2.0,105,22,5,3,5,4,5,3,-1,-12
68,180,76,38,4,205.0,1.0,95,22,9,5,9,6,4,2,1,-11
69,183,76,38,4,208.0,1.0,95,22,9,5,9,6,4,2,0,-11
70,186,81,41,9,211.0,1.0,105,23,14,8,2,2,2,1,1,-10
71,189,74,37,2,214.0,1.0,95,23,7,4,7,5,-2,-1,-1,-11
72,192,72,36,0,217.0,2.0,95,23,5,3,5,4,5,3,-1,-12
73,194,81,41,9,220.0,2.0,105,24,14,8,2,2,2,1,1,-11
74,196,79,40,7,223.0,1.0,95,24,12,7,0,1,0,0,-1,-12
75,199,76,38,4,226.0,0.5,95,24,9,5,9,6,4,2,-1,-13
76,203,81,41,9,229.0,2.0,105,25,14,8,2,2,9,5,1,-12
77,205,79,40,7,232.0,1.0,95,25,12,7,0,1,0,0,-1,-13
78,208,74,37,2,235.0,2.0,95,25,7,4,7,5,2,1,-1,-14
79,210,81,41,9,238.0,2.0,105,26,14,8,2,2,2,1,1,-13
80,212,79,40,7,241.0,1.0,95,26,12,7,0,1,0,0,-1,-14
81,215,76,38,4,244.0,1.0,95,26,9,5,9,6,4,2,-1,-15
82,218,72,36,0,247.0,1.0,105,27,5,3,5,4,5,3,-1,-16
83,221,76,38,4,250.0,1.0,95,27,9,5,9,6,4,2,1,-15
84,224,72,36,0,253.0,2.0,95,27,5,3,5,4,1,1,-1,-16
85,226,81,41,9,256.0,2.0,105,28,14,8,2,2,2,1,1,-15
86,228,79,40,7,259.0,1.0,95,28,12,7,0,1,0,0,-1,-16
87,231,76,38,4,262.0,0.5,95,28,9,5,9,6,4,2,-1,-17
88,235,81,41,9,265.0,1.0,105,29,14,8,2,2,9,5,1,-16
89,238,79,40,7,268.0,1.0,95,29,12,7,0,1,0,0,-1,-17
90,241,74,37,2,271.0,2.0,95,29,7,4,7,5,2,1,-1,-18
91,244,84,43,0,274.0,1.0,105,30,17,10,5,4,1,1,1,-17
92,247,79,40,7,277.0,1.0,95,30,12,7,0,1,-2,-1,-1,-18
93,250,77,39,5,280.0,1.0,95,30,10,6,10,7,5,3,-1,-19
94,253,76,38,4,283.0,1.0,95,30,9,5,9,6,2,1,-1,-20
95,256,72,36,0,286.0,2.0,105,31,5,3,5,4,5,3,-1,-21
96,258,76,38,4,289.0,1.5,95,31,9,5,9,6,4,2,1,-20
97,261,72,36,0,292.0,2.0,95,31,5,3,5,4,1,1,-1,-21
