,index,midi_note_num,diatonic_note_num,chromatic_pitch_class,onset,duration,velocity,bar_count,relative_chromatic_pitch,relative_diatonic_pitch,chromatic_scale_degree,diatonic_scale_degree,chromatic_interval,diatonic_interval,parsons_code,parsons_cumsum
0,0,64,31,4,0.0,2.0,105,0,-5,-3,7,5,0,0,0,0
1,3,73,36,1,6.0,4.0,105,1,4,2,4,3,2,1,1,1
2,5,73,36,1,12.0,4.0,105,2,4,2,4,3,2,1,0,1
3,7,73,36,1,18.0,6.0,105,3,4,2,4,3,-1,-1,0,1
4,8,71,35,11,24.0,2.0,105,4,2,1,2,2,-2,-1,-1,0
5,11,73,36,1,30.0,2.0,105,5,4,2,4,3,2,1,1,1
6,14,73,36,1,36.0,4.0,105,6,4,2,4,3,4,2,0,1
7,16,73,36,1,42.0,6.0,105,7,4,2,4,3,-1,-1,0,1
8,17,73,36,1,48.0,2.0,105,8,4,2,4,3,0,0,0,1
9,20,71,35,11,54.0,4.0,105,9,2,1,2,2,-2,-1,-1,0
10,22,76,38,4,60.0,2.0,105,10,7,4,7,5,3,2,1,1
11,25,71,35,11,66.0,6.0,105,11,2,1,2,2,-2,-1,-1,0
12,26,73,36,1,72.0,4.0,105,12,4,2,4,3,2,1,1,1
13,28,69,34,9,78.0,4.0,105,13,0,0,0,1,-2,-1,-1,0
14,30,73,36,1,84.0,2.0,105,14,4,2,4,3,2,1,1,1
15,33,73,36,1,90.0,6.0,105,15,4,2,4,3,2,1,0,1
16,34,64,31,4,96.0,2.0,105,16,-5,-3,7,5,-9,-5,-1,0
17,37,76,38,4,102.0,2.0,105,17,7,4,7,5,3,2,1,1
18,40,71,35,11,108.0,2.0,105,18,2,1,2,2,-2,-1,-1,0
19,43,69,34,9,114.0,6.0,105,19,0,0,0,1,-2,-1,-1,-1
20,44,64,31,4,120.0,2.0,105,20,-5,-3,7,5,-5,-3,-1,-2
21,47,73,36,1,126.0,2.0,105,21,4,2,4,3,2,1,1,-1
22,50,73,36,1,132.0,1.0,105,22,4,2,4,3,-1,-1,0,-1
23,54,73,36,1,138.0,2.0,105,23,4,2,4,3,2,1,0,-1
24,56,64,31,4,144.0,2.0,105,24,-5,-3,7,5,-7,-4,-1,-2
25,59,73,36,1,150.0,2.0,105,25,4,2,4,3,2,1,1,-1
26,62,73,36,1,156.0,1.0,105,26,4,2,4,3,-1,-1,0,-1
27,66,69,34,9,162.0,6.0,105,27,0,0,0,1,1,1,-1,-2
28,67,64,31,4,168.0,2.0,105,28,-5,-3,7,5,-5,-3,-1,-3
29,70,73,36,1,174.0,2.0,105,29,4,2,4,3,2,1,1,-2
30,73,73,36,1,180.0,1.0,105,30,4,2,4,3,-1,-1,0,-2
31,77,73,36,1,186.0,2.0,105,31,4,2,4,3,2,1,0,-2
32,79,64,31,4,192.0,2.0,105,32,-5,-3,7,5,-7,-4,-1,-3
33,82,73,36,1,198.0,2.0,105,33,4,2,4,3,2,1,1,-2
34,85,73,36,1,204.0,1.0,105,34,4,2,4,3,-1,-1,0,-2
35,89,69,34,9,210.0,6.0,105,35,0,0,0,1,1,1,-1,-3
36,90,76,38,4,216.0,2.0,105,36,7,4,7,5,7,4,1,-2
37,93,74,37,2,222.0,2.0,105,37,5,3,5,4,-2,-1,-1,-3
38,96,73,36,1,228.0,1.0,105,38,4,2,4,3,-1,-1,-1,-4
39,100,73,36,1,234.0,2.0,105,39,4,2,4,3,2,1,0,-4
40,102,76,38,4,240.0,2.0,105,40,7,4,7,5,5,3,1,-3
41,105,74,37,2,246.0,2.0,105,41,5,3,5,4,-2,-1,-1,-4
42,108,73,36,1,252.0,1.0,105,42,4,2,4,3,-1,-1,-1,-5
43,112,69,34,9,258.0,6.0,105,43,0,0,0,1,1,1,-1,-6
44,113,76,38,4,264.0,2.0,105,44,7,4,7,5,7,4,1,-5
45,116,74,37,2,270.0,2.0,105,45,5,3,5,4,-2,-1,-1,-6
46,119,73,36,1,276.0,1.0,105,46,4,2,4,3,-1,-1,-1,-7
47,123,73,36,1,282.0,2.0,105,47,4,2,4,3,2,1,0,-7
48,125,76,38,4,288.0,2.0,105,48,7,4,7,5,5,3,1,-6
49,128,74,37,2,294.0,2.0,105,49,5,3,5,4,-2,-1,-1,-7
50,131,73,36,1,300.0,1.0,105,50,4,2,4,3,-1,-1,-1,-8
51,135,69,34,9,306.0,6.0,105,51,0,0,0,1,1,1,-1,-9
52,136,64,31,4,312.0,8.0,105,52,-5,-3,7,5,-5,-3,-1,-10
53,139,69,34,9,324.0,4.0,105,53,0,0,0,1,1,1,1,-9
54,141,69,34,9,330.0,2.0,105,54,0,0,0,1,-2,-1,0,-9
55,144,74,37,2,336.0,2.0,105,55,5,3,5,4,1,1,1,-8
56,147,76,38,4,342.0,2.0,105,56,7,4,7,5,2,1,1,-7
57,150,76,38,4,348.0,4.0,105,57,7,4,7,5,3,2,0,-7
58,152,76,38,4,354.0,8.0,105,58,7,4,7,5,-2,-1,0,-7
59,155,74,37,2,366.0,6.0,105,59,5,3,5,4,-2,-1,-1,-8
60,156,73,36,1,372.0,2.0,105,60,4,2,4,3,-1,-1,-1,-9
61,159,68,33,8,378.0,2.0,105,61,-1,-1,11,7,-1,-1,-1,-10
62,164,64,31,4,390.0,2.0,105,62,-5,-3,7,5,-4,-2,-1,-11
63,167,69,34,9,396.0,2.0,105,63,0,0,0,1,1,1,1,-10
64,170,69,34,9,402.0,8.0,105,64,0,0,0,1,1,1,0,-10
65,171,73,36,1,414.0,2.0,105,65,4,2,4,3,4,2,1,-9
66,174,68,33,8,420.0,6.0,105,66,-1,-1,11,7,-1,-1,-1,-10
67,175,69,34,9,426.0,6.0,105,67,0,0,0,1,1,1,1,-9
68,176,73,36,1,432.0,4.0,105,68,4,2,4,3,4,2,1,-8
69,178,76,38,4,438.0,4.0,105,69,7,4,7,5,2,1,1,-7
70,180,76,38,4,444.0,2.0,105,70,7,4,7,5,-2,-1,0,-7
71,183,76,38,4,450.0,2.0,105,71,7,4,7,5,2,1,0,-7
72,185,73,36,1,456.0,4.0,105,72,4,2,4,3,-1,-1,-1,-8
73,187,76,38,4,462.0,4.0,105,73,7,4,7,5,2,1,1,-7
74,189,76,38,4,468.0,2.0,105,74,7,4,7,5,-2,-1,0,-7
75,192,69,34,9,474.0,6.0,105,75,0,0,0,1,-2,-1,-1,-8
76,193,73,36,1,480.0,4.0,105,76,4,2,4,3,4,2,1,-7
77,195,76,38,4,486.0,4.0,105,77,7,4,7,5,2,1,1,-6
78,197,76,38,4,492.0,2.0,105,78,7,4,7,5,-2,-1,0,-6
79,200,76,38,4,498.0,2.0,105,79,7,4,7,5,2,1,0,-6
80,202,73,36,1,504.0,4.0,105,80,4,2,4,3,-1,-1,-1,-7
81,204,76,38,4,510.0,4.0,105,81,7,4,7,5,2,1,1,-6
82,206,76,38,4,516.0,2.0,105,82,7,4,7,5,-2,-1,0,-6
83,209,69,34,9,522.0,6.0,105,83,0,0,0,1,-2,-1,-1,-7
84,210,73,36,1,528.0,2.0,105,84,4,2,4,3,4,2,1,-6
85,213,71,35,11,534.0,2.0,105,85,2,1,2,2,-2,-1,-1,-7
86,216,69,34,9,540.0,2.0,105,86,0,0,0,1,-2,-1,-1,-8
87,219,69,34,9,546.0,2.0,105,87,0,0,0,1,1,1,0,-8
88,221,73,36,1,552.0,2.0,105,88,4,2,4,3,5,3,1,-7
89,224,66,32,6,558.0,4.0,105,89,-3,-2,9,6,-2,-1,-1,-8
90,226,69,34,9,564.0,4.0,105,90,0,0,0,1,1,1,1,-7
91,228,69,34,9,570.0,6.0,105,91,0,0,0,1,-2,-1,0,-7
92,229,73,36,1,576.0,2.0,105,92,4,2,4,3,4,2,1,-6
93,232,71,35,11,582.0,2.0,105,93,2,1,2,2,-2,-1,-1,-7
94,235,69,34,9,588.0,2.0,105,94,0,0,0,1,-2,-1,-1,-8
95,238,69,34,9,594.0,2.0,105,95,0,0,0,1,1,1,0,-8
96,240,73,36,1,600.0,2.0,105,96,4,2,4,3,5,3,1,-7
97,243,66,32,6,606.0,4.0,105,97,-3,-2,9,6,-2,-1,-1,-8
98,245,69,34,9,612.0,4.0,105,98,0,0,0,1,1,1,1,-7
99,247,69,34,9,618.0,6.0,105,99,0,0,0,1,-2,-1,0,-7
100,248,73,36,1,624.0,4.0,105,100,4,2,4,3,4,2,1,-6
101,250,76,38,4,630.0,4.0,105,101,7,4,7,5,2,1,1,-5
102,252,76,38,4,636.0,4.0,105,102,7,4,7,5,2,1,0,-5
103,254,76,38,4,642.0,6.0,105,103,7,4,7,5,-2,-1,0,-5
