,index,midi_note_num,diatonic_note_num,chromatic_pitch_class,onset,duration,velocity,bar_count,relative_chromatic_pitch,relative_diatonic_pitch,chromatic_scale_degree,diatonic_scale_degree,chromatic_interval,diatonic_interval,parsons_code,parsons_cumsum
0,2,83,42,11,2.0,1.33,105,0,12,7,0,1,0,0,0,0
1,7,78,39,6,6.0,1.33,95,0,7,4,7,5,7,4,-1,-1
2,11,67,33,7,10.0,1.33,105,1,-4,-2,8,6,1,1,-1,-2
3,17,66,32,6,18.0,1.0,105,2,-5,-3,7,5,2,1,-1,-3
4,19,73,36,1,22.0,1.0,95,2,2,1,2,2,-5,-3,1,-2
5,21,74,37,2,26.0,1.33,105,3,3,2,3,3,-4,-2,1,-1
6,25,73,36,1,30.0,1.33,95,3,2,1,2,2,-1,-1,-1,-2
7,29,83,42,11,34.0,1.33,105,4,12,7,0,1,5,3,1,-1
8,34,78,39,6,38.0,1.33,95,4,7,4,7,5,7,4,-1,-2
9,38,67,33,7,42.0,1.33,105,5,-4,-2,8,6,1,1,-1,-3
10,44,66,32,6,50.0,1.0,105,6,-5,-3,7,5,2,1,-1,-4
11,47,78,39,6,54.0,1.33,95,6,7,4,7,5,-1,-1,1,-3
12,51,71,35,11,58.0,2.0,105,7,0,0,0,1,-3,-2,-1,-4
13,53,79,40,7,62.0,1.33,95,7,8,5,8,6,1,1,1,-3
14,56,83,42,11,66.0,1.33,105,8,12,7,0,1,5,3,1,-2
15,61,78,39,6,70.0,1.33,95,8,7,4,7,5,7,4,-1,-3
16,65,67,33,7,74.0,1.33,105,9,-4,-2,8,6,1,1,-1,-4
17,71,66,32,6,82.0,1.0,105,10,-5,-3,7,5,2,1,-1,-5
18,73,73,36,1,86.0,1.0,95,10,2,1,2,2,-5,-3,1,-4
19,75,74,37,2,90.0,1.33,105,11,3,2,3,3,-4,-2,1,-3
20,79,73,36,1,94.0,1.33,95,11,2,1,2,2,-1,-1,-1,-4
21,83,83,42,11,98.0,1.33,105,12,12,7,0,1,5,3,1,-3
22,88,78,39,6,102.0,1.33,95,12,7,4,7,5,7,4,-1,-4
23,92,67,33,7,106.0,1.33,105,13,-4,-2,8,6,1,1,-1,-5
24,98,66,32,6,114.0,1.0,105,14,-5,-3,7,5,2,1,-1,-6
25,101,78,39,6,118.0,1.33,95,14,7,4,7,5,-1,-1,1,-5
26,105,71,35,11,122.0,4.0,105,15,0,0,0,1,-3,-2,-1,-6
27,106,69,34,9,126.0,1.33,95,15,-2,-1,10,7,-2,-1,-1,-7
28,110,62,30,2,130.0,1.33,105,16,-9,-5,3,3,-7,-4,-1,-8
29,114,62,30,2,134.0,1.33,95,16,-9,-5,3,3,-12,-7,0,-8
30,118,62,30,2,138.0,2.0,105,17,-9,-5,3,3,-12,-7,0,-8
31,122,78,39,6,142.0,1.33,95,17,7,4,7,5,9,5,1,-7
32,126,79,40,7,146.0,0.67,105,18,8,5,8,6,12,7,1,-6
33,131,73,36,1,150.0,1.33,95,18,2,1,2,2,-3,-2,-1,-7
34,135,74,37,2,154.0,0.67,105,19,3,2,3,3,1,1,1,-6
35,141,73,36,1,158.0,0.67,95,19,2,1,2,2,-1,-1,-1,-7
36,147,62,30,2,162.0,1.33,105,20,-9,-5,3,3,-2,-1,-1,-8
37,151,62,30,2,166.0,1.33,95,20,-9,-5,3,3,-12,-7,0,-8
38,155,62,30,2,170.0,2.0,105,21,-9,-5,3,3,-12,-7,0,-8
39,159,78,39,6,174.0,1.33,95,21,7,4,7,5,9,5,1,-7
40,163,79,40,7,178.0,0.67,105,22,8,5,8,6,12,7,1,-6
41,168,73,36,1,182.0,1.33,95,22,2,1,2,2,-3,-2,-1,-7
42,172,74,37,2,186.0,0.67,105,23,3,2,3,3,1,1,1,-6
43,177,74,37,2,190.0,2.0,95,23,3,2,3,3,-2,-1,0,-6
44,181,62,30,2,194.0,1.33,105,24,-9,-5,3,3,-4,-2,-1,-7
45,185,62,30,2,198.0,1.33,95,24,-9,-5,3,3,-12,-7,0,-7
46,189,62,30,2,202.0,2.0,105,25,-9,-5,3,3,-12,-7,0,-7
47,193,78,39,6,206.0,1.33,95,25,7,4,7,5,9,5,1,-6
48,197,79,40,7,210.0,0.67,105,26,8,5,8,6,12,7,1,-5
49,202,73,36,1,214.0,1.33,95,26,2,1,2,2,-3,-2,-1,-6
50,206,74,37,2,218.0,0.67,105,27,3,2,3,3,1,1,1,-5
51,212,73,36,1,222.0,0.67,95,27,2,1,2,2,-1,-1,-1,-6
52,218,62,30,2,226.0,1.33,105,28,-9,-5,3,3,-2,-1,-1,-7
53,222,62,30,2,230.0,1.33,95,28,-9,-5,3,3,-12,-7,0,-7
54,226,62,30,2,234.0,2.0,105,29,-9,-5,3,3,-12,-7,0,-7
55,230,78,39,6,238.0,1.33,95,29,7,4,7,5,9,5,1,-6
56,234,79,40,7,242.0,0.67,105,30,8,5,8,6,12,7,1,-5
57,239,73,36,1,246.0,1.33,95,30,2,1,2,2,-3,-2,-1,-6
58,243,74,37,2,250.0,0.67,105,31,3,2,3,3,1,1,1,-5
59,248,74,37,2,254.0,2.0,95,31,3,2,3,3,-2,-1,0,-5
60,251,76,38,4,258.0,0.67,105,32,5,3,5,4,2,1,1,-4
61,256,76,38,4,262.0,0.67,95,32,5,3,5,4,7,4,0,-4
62,261,79,40,7,266.0,0.67,105,33,8,5,8,6,10,6,1,-3
63,267,76,38,4,270.0,0.67,95,33,5,3,5,4,7,4,-1,-4
64,272,79,40,7,274.0,0.67,105,34,8,5,8,6,10,6,1,-3
65,278,76,38,4,278.0,0.67,95,34,5,3,5,4,7,4,-1,-4
66,283,76,38,4,282.0,0.67,105,35,5,3,5,4,2,1,0,-4
67,288,76,38,4,286.0,0.67,95,35,5,3,5,4,7,4,0,-4
68,293,79,40,7,290.0,0.67,105,36,8,5,8,6,10,6,1,-3
69,299,76,38,4,294.0,0.67,95,36,5,3,5,4,7,4,-1,-4
70,304,79,40,7,298.0,0.67,105,37,8,5,8,6,10,6,1,-3
71,310,76,38,4,302.0,0.67,95,37,5,3,5,4,7,4,-1,-4
72,315,62,30,2,306.0,1.33,105,38,-9,-5,3,3,-12,-7,-1,-5
73,319,62,30,2,310.0,1.33,95,38,-9,-5,3,3,-12,-7,0,-5
74,323,62,30,2,314.0,2.0,105,39,-9,-5,3,3,-12,-7,0,-5
75,327,78,39,6,318.0,1.33,95,39,7,4,7,5,9,5,1,-4
76,331,79,40,7,322.0,0.67,105,40,8,5,8,6,12,7,1,-3
77,336,73,36,1,326.0,1.33,95,40,2,1,2,2,-3,-2,-1,-4
78,340,62,30,2,330.0,1.33,105,41,-9,-5,3,3,-11,-6,-1,-5
79,344,62,30,2,334.0,1.33,95,41,-9,-5,3,3,-12,-7,0,-5
80,348,62,30,2,338.0,2.0,105,42,-9,-5,3,3,-12,-7,0,-5
81,352,78,39,6,342.0,1.33,95,42,7,4,7,5,9,5,1,-4
82,356,79,40,7,346.0,0.67,105,43,8,5,8,6,12,7,1,-3
83,361,73,36,1,350.0,1.33,95,43,2,1,2,2,-3,-2,-1,-4
84,365,83,42,11,354.0,1.33,105,44,12,7,0,1,10,6,1,-3
85,370,78,39,6,358.0,1.33,95,44,7,4,7,5,7,4,-1,-4
86,374,67,33,7,362.0,1.33,105,45,-4,-2,8,6,1,1,-1,-5
87,380,66,32,6,370.0,1.0,105,46,-5,-3,7,5,2,1,-1,-6
88,382,73,36,1,374.0,1.0,95,46,2,1,2,2,-5,-3,1,-5
89,384,74,37,2,378.0,1.33,105,47,3,2,3,3,-4,-2,1,-4
90,388,73,36,1,382.0,1.33,95,47,2,1,2,2,-1,-1,-1,-5
91,392,83,42,11,386.0,1.33,105,48,12,7,0,1,5,3,1,-4
92,397,78,39,6,390.0,1.33,95,48,7,4,7,5,7,4,-1,-5
93,401,67,33,7,394.0,1.33,105,49,-4,-2,8,6,1,1,-1,-6
94,407,66,32,6,402.0,1.0,105,50,-5,-3,7,5,2,1,-1,-7
95,410,78,39,6,406.0,1.33,95,50,7,4,7,5,-1,-1,1,-6
96,414,71,35,11,410.0,2.0,105,51,0,0,0,1,-3,-2,-1,-7
97,416,79,40,7,414.0,1.33,95,51,8,5,8,6,1,1,1,-6
98,419,83,42,11,418.0,1.33,105,52,12,7,0,1,5,3,1,-5
99,424,78,39,6,422.0,1.33,95,52,7,4,7,5,7,4,-1,-6
100,428,67,33,7,426.0,1.33,105,53,-4,-2,8,6,1,1,-1,-7
101,434,66,32,6,434.0,1.0,105,54,-5,-3,7,5,2,1,-1,-8
102,436,73,36,1,438.0,1.0,95,54,2,1,2,2,-5,-3,1,-7
103,438,74,37,2,442.0,1.33,105,55,3,2,3,3,-4,-2,1,-6
104,442,73,36,1,446.0,1.33,95,55,2,1,2,2,-1,-1,-1,-7
105,446,83,42,11,450.0,1.33,105,56,12,7,0,1,5,3,1,-6
106,451,78,39,6,454.0,1.33,95,56,7,4,7,5,7,4,-1,-7
107,455,67,33,7,458.0,1.33,105,57,-4,-2,8,6,1,1,-1,-8
108,461,66,32,6,466.0,1.0,105,58,-5,-3,7,5,2,1,-1,-9
109,464,78,39,6,470.0,1.33,95,58,7,4,7,5,-1,-1,1,-8
110,468,71,35,11,474.0,4.0,105,59,0,0,0,1,-3,-2,-1,-9
111,469,69,34,9,478.0,3.0,95,59,-2,-1,10,7,-2,-1,-1,-10
112,471,74,37,2,482.0,0.67,105,60,3,2,3,3,1,1,1,-9
113,477,81,41,9,486.0,0.67,95,60,10,6,10,7,3,2,1,-8
114,482,83,42,11,490.0,0.67,105,61,12,7,0,1,-3,-2,1,-7
115,487,71,35,11,494.0,2.0,95,61,0,0,0,1,-8,-5,-1,-8
116,489,83,42,11,498.0,0.67,105,62,12,7,0,1,0,0,1,-7
117,495,83,42,11,502.0,0.67,95,62,12,7,0,1,7,4,0,-7
118,500,83,42,11,506.0,0.67,105,63,12,7,0,1,2,1,0,-7
119,506,69,34,9,510.0,2.0,95,63,-2,-1,10,7,-2,-1,-1,-8
120,510,74,37,2,514.0,0.67,105,64,3,2,3,3,1,1,1,-7
121,516,81,41,9,518.0,0.67,95,64,10,6,10,7,3,2,1,-6
122,521,83,42,11,522.0,0.67,105,65,12,7,0,1,-3,-2,1,-5
123,526,71,35,11,526.0,2.0,95,65,0,0,0,1,-8,-5,-1,-6
124,528,83,42,11,530.0,0.67,105,66,12,7,0,1,0,0,1,-5
125,534,83,42,11,534.0,0.67,95,66,12,7,0,1,7,4,0,-5
126,540,74,37,2,538.0,0.67,105,67,3,2,3,3,-2,-1,-1,-6
127,546,74,37,2,542.0,2.0,95,67,3,2,3,3,-4,-2,0,-6
128,548,74,37,2,546.0,0.67,105,68,3,2,3,3,1,1,0,-6
129,554,81,41,9,550.0,0.67,95,68,10,6,10,7,3,2,1,-5
130,559,83,42,11,554.0,0.67,105,69,12,7,0,1,-3,-2,1,-4
131,564,71,35,11,558.0,2.0,95,69,0,0,0,1,-8,-5,-1,-5
132,566,83,42,11,562.0,0.67,105,70,12,7,0,1,0,0,1,-4
133,572,83,42,11,566.0,0.67,95,70,12,7,0,1,7,4,0,-4
134,577,83,42,11,570.0,0.67,105,71,12,7,0,1,2,1,0,-4
135,583,69,34,9,574.0,2.0,95,71,-2,-1,10,7,-2,-1,-1,-5
136,587,74,37,2,578.0,0.67,105,72,3,2,3,3,1,1,1,-4
137,593,81,41,9,582.0,0.67,95,72,10,6,10,7,3,2,1,-3
138,598,83,42,11,586.0,0.67,105,73,12,7,0,1,-3,-2,1,-2
139,603,71,35,11,590.0,2.0,95,73,0,0,0,1,-8,-5,-1,-3
140,605,83,42,11,594.0,0.67,105,74,12,7,0,1,0,0,1,-2
141,611,83,42,11,598.0,0.67,95,74,12,7,0,1,7,4,0,-2
142,617,74,37,2,602.0,0.67,105,75,3,2,3,3,-2,-1,-1,-3
143,623,74,37,2,606.0,2.0,95,75,3,2,3,3,-4,-2,0,-3
144,625,62,30,2,610.0,1.33,105,76,-9,-5,3,3,0,0,-1,-4
145,629,62,30,2,614.0,1.33,95,76,-9,-5,3,3,-12,-7,0,-4
146,633,62,30,2,618.0,2.0,105,77,-9,-5,3,3,-12,-7,0,-4
147,637,78,39,6,622.0,1.33,95,77,7,4,7,5,9,5,1,-3
148,641,79,40,7,626.0,0.67,105,78,8,5,8,6,12,7,1,-2
149,646,73,36,1,630.0,1.33,95,78,2,1,2,2,-3,-2,-1,-3
150,650,74,37,2,634.0,0.67,105,79,3,2,3,3,1,1,1,-2
151,656,73,36,1,638.0,0.67,95,79,2,1,2,2,-1,-1,-1,-3
152,662,62,30,2,642.0,1.33,105,80,-9,-5,3,3,-2,-1,-1,-4
153,666,62,30,2,646.0,1.33,95,80,-9,-5,3,3,-12,-7,0,-4
154,670,62,30,2,650.0,2.0,105,81,-9,-5,3,3,-12,-7,0,-4
155,674,78,39,6,654.0,1.33,95,81,7,4,7,5,9,5,1,-3
156,678,79,40,7,658.0,0.67,105,82,8,5,8,6,12,7,1,-2
157,683,73,36,1,662.0,1.33,95,82,2,1,2,2,-3,-2,-1,-3
158,687,74,37,2,666.0,0.67,105,83,3,2,3,3,1,1,1,-2
159,692,74,37,2,670.0,2.0,95,83,3,2,3,3,-2,-1,0,-2
160,696,62,30,2,674.0,1.33,105,84,-9,-5,3,3,-4,-2,-1,-3
161,700,62,30,2,678.0,1.33,95,84,-9,-5,3,3,-12,-7,0,-3
162,704,62,30,2,682.0,2.0,105,85,-9,-5,3,3,-12,-7,0,-3
163,708,78,39,6,686.0,1.33,95,85,7,4,7,5,9,5,1,-2
164,712,79,40,7,690.0,0.67,105,86,8,5,8,6,12,7,1,-1
165,717,73,36,1,694.0,1.33,95,86,2,1,2,2,-3,-2,-1,-2
166,721,74,37,2,698.0,0.67,105,87,3,2,3,3,1,1,1,-1
167,727,73,36,1,702.0,0.67,95,87,2,1,2,2,-1,-1,-1,-2
168,733,62,30,2,706.0,1.33,105,88,-9,-5,3,3,-2,-1,-1,-3
169,737,62,30,2,710.0,1.33,95,88,-9,-5,3,3,-12,-7,0,-3
170,741,62,30,2,714.0,2.0,105,89,-9,-5,3,3,-12,-7,0,-3
171,745,78,39,6,718.0,1.33,95,89,7,4,7,5,9,5,1,-2
172,749,79,40,7,722.0,0.67,105,90,8,5,8,6,12,7,1,-1
173,754,73,36,1,726.0,1.33,95,90,2,1,2,2,-3,-2,-1,-2
174,758,74,37,2,730.0,0.67,105,91,3,2,3,3,1,1,1,-1
175,763,74,37,2,734.0,2.0,95,91,3,2,3,3,-2,-1,0,-1
