,index,midi_note_num,diatonic_note_num,chromatic_pitch_class,onset,duration,velocity,bar_count,relative_chromatic_pitch,relative_diatonic_pitch,chromatic_scale_degree,diatonic_scale_degree,chromatic_interval,diatonic_interval,parsons_code,parsons_cumsum
0,1,62,30,2,3.0,1.0,105,0,-5,-3,7,5,0,0,0,0
1,4,71,35,11,6.0,1.0,95,0,4,2,4,3,-1,-1,1,1
2,7,69,34,9,9.0,1.0,105,1,2,1,2,2,2,1,-1,0
3,10,62,30,2,12.0,2.0,95,1,-5,-3,7,5,0,0,-1,-1
4,12,60,29,0,15.0,1.0,105,2,-7,-4,5,4,-4,-2,-1,-2
5,16,72,36,0,18.0,1.0,95,2,5,3,5,4,5,3,1,-1
6,19,69,34,9,21.0,1.0,105,3,2,1,2,2,2,1,-1,-2
7,22,74,37,2,24.0,1.0,95,3,7,4,7,5,12,7,1,-1
8,25,72,36,0,27.0,3.0,105,4,5,3,5,4,-4,-2,-1,-2
9,26,71,35,11,30.0,1.0,95,4,4,2,4,3,-1,-1,-1,-3
10,29,69,34,9,33.0,1.0,105,5,2,1,2,2,2,1,-1,-4
11,32,62,30,2,36.0,2.0,95,5,-5,-3,7,5,0,0,-1,-5
12,34,60,29,0,39.0,1.0,105,6,-7,-4,5,4,-4,-2,-1,-6
13,37,71,35,11,42.0,1.0,95,6,4,2,4,3,-1,-1,1,-5
14,40,69,34,9,45.0,1.0,105,7,2,1,2,2,2,1,-1,-6
15,43,62,30,2,48.0,3.0,95,7,-5,-3,7,5,0,0,-1,-7
16,44,62,30,2,51.0,1.0,105,8,-5,-3,7,5,0,0,0,-7
17,47,71,35,11,54.0,1.0,95,8,4,2,4,3,-1,-1,1,-6
18,50,69,34,9,57.0,1.0,105,9,2,1,2,2,2,1,-1,-7
19,53,62,30,2,60.0,2.0,95,9,-5,-3,7,5,0,0,-1,-8
20,55,60,29,0,63.0,1.0,105,10,-7,-4,5,4,-4,-2,-1,-9
21,59,72,36,0,66.0,1.0,95,10,5,3,5,4,5,3,1,-8
22,62,69,34,9,69.0,1.0,105,11,2,1,2,2,2,1,-1,-9
23,65,74,37,2,72.0,1.0,95,11,7,4,7,5,12,7,1,-8
24,68,72,36,0,75.0,3.0,105,12,5,3,5,4,-4,-2,-1,-9
25,69,71,35,11,78.0,1.0,95,12,4,2,4,3,-1,-1,-1,-10
26,72,69,34,9,81.0,1.0,105,13,2,1,2,2,2,1,-1,-11
27,75,62,30,2,84.0,2.0,95,13,-5,-3,7,5,0,0,-1,-12
28,77,60,29,0,87.0,1.0,105,14,-7,-4,5,4,-4,-2,-1,-13
29,80,71,35,11,90.0,1.0,95,14,4,2,4,3,-1,-1,1,-12
30,83,69,34,9,93.0,1.0,105,15,2,1,2,2,2,1,-1,-13
31,86,62,30,2,96.0,3.0,95,15,-5,-3,7,5,0,0,-1,-14
32,87,64,31,4,99.0,1.0,105,16,-3,-2,9,6,2,1,1,-13
33,90,76,38,4,102.0,0.5,95,16,9,5,9,6,4,2,1,-12
34,94,78,39,6,105.0,1.0,105,17,11,6,11,7,2,1,1,-11
35,97,74,37,2,108.0,2.0,95,17,7,4,7,5,0,0,-1,-12
36,99,78,39,6,111.0,0.5,105,18,11,6,11,7,2,1,1,-11
37,103,76,38,4,114.0,1.0,95,18,9,5,9,6,-3,-2,-1,-12
38,106,74,37,2,117.0,1.0,105,19,7,4,7,5,5,3,-1,-13
39,109,67,33,7,120.0,2.0,95,19,0,0,0,1,0,0,-1,-14
40,111,64,31,4,123.0,1.0,105,20,-3,-2,9,6,-5,-3,-1,-15
41,114,76,38,4,126.0,0.5,95,20,9,5,9,6,4,2,1,-14
42,118,78,39,6,129.0,1.0,105,21,11,6,11,7,2,1,1,-13
43,121,74,37,2,132.0,1.0,95,21,7,4,7,5,0,0,-1,-14
44,125,76,38,4,135.0,1.0,105,22,9,5,9,6,-3,-2,1,-13
45,128,74,37,2,138.0,1.0,95,22,7,4,7,5,5,3,-1,-14
46,131,69,34,9,141.0,1.0,105,23,2,1,2,2,2,1,-1,-15
47,134,69,34,9,144.0,3.0,95,23,2,1,2,2,0,0,0,-15
48,135,64,31,4,147.0,1.0,105,24,-3,-2,9,6,-5,-3,-1,-16
49,138,76,38,4,150.0,0.5,95,24,9,5,9,6,4,2,1,-15
50,142,78,39,6,153.0,1.0,105,25,11,6,11,7,2,1,1,-14
51,145,74,37,2,156.0,2.0,95,25,7,4,7,5,0,0,-1,-15
52,147,78,39,6,159.0,0.5,105,26,11,6,11,7,2,1,1,-14
53,151,76,38,4,162.0,1.0,95,26,9,5,9,6,-3,-2,-1,-15
54,154,74,37,2,165.0,1.0,105,27,7,4,7,5,5,3,-1,-16
55,157,67,33,7,168.0,2.0,95,27,0,0,0,1,0,0,-1,-17
56,159,64,31,4,171.0,1.0,105,28,-3,-2,9,6,-5,-3,-1,-18
57,162,76,38,4,174.0,0.5,95,28,9,5,9,6,4,2,1,-17
58,166,78,39,6,177.0,1.0,105,29,11,6,11,7,2,1,1,-16
59,169,74,37,2,180.0,1.0,95,29,7,4,7,5,0,0,-1,-17
60,173,76,38,4,183.0,1.0,105,30,9,5,9,6,-3,-2,1,-16
61,176,74,37,2,186.0,1.0,95,30,7,4,7,5,5,3,-1,-17
62,179,69,34,9,189.0,1.0,105,31,2,1,2,2,2,1,-1,-18
63,182,69,34,9,192.0,3.0,95,31,2,1,2,2,0,0,0,-18
64,183,72,36,0,195.0,2.0,105,32,5,3,5,4,3,2,1,-17
65,185,74,37,2,198.0,1.0,95,32,7,4,7,5,-2,-1,1,-16
66,188,67,33,7,201.0,2.0,105,33,0,0,0,1,-2,-1,-1,-17
67,190,67,33,7,204.0,1.0,95,33,0,0,0,1,-2,-1,0,-17
68,193,62,30,2,207.0,1.0,105,34,-5,-3,7,5,-2,-1,-1,-18
69,196,66,32,6,210.0,1.0,95,34,-1,-1,11,7,4,2,1,-17
70,199,67,33,7,213.0,1.0,105,35,0,0,0,1,1,1,1,-16
71,202,69,34,9,216.0,1.0,95,35,2,1,2,2,2,1,1,-15
72,205,72,36,0,219.0,2.0,105,36,5,3,5,4,1,1,1,-14
73,207,74,37,2,222.0,1.0,95,36,7,4,7,5,-2,-1,1,-13
74,210,67,33,7,225.0,2.0,105,37,0,0,0,1,-2,-1,-1,-14
75,212,67,33,7,228.0,1.0,95,37,0,0,0,1,-2,-1,0,-14
76,215,66,32,6,231.0,1.0,105,38,-1,-1,11,7,2,1,-1,-15
77,218,62,30,2,234.0,1.0,95,38,-5,-3,7,5,0,0,-1,-16
78,221,66,32,6,237.0,3.0,105,39,-1,-1,11,7,-1,-1,1,-15
79,222,67,33,7,240.0,1.0,95,39,0,0,0,1,1,1,1,-14
80,225,72,36,0,243.0,2.0,105,40,5,3,5,4,1,1,1,-13
81,227,74,37,2,246.0,1.0,95,40,7,4,7,5,-2,-1,1,-12
82,230,67,33,7,249.0,2.0,105,41,0,0,0,1,-2,-1,-1,-13
83,232,67,33,7,252.0,1.0,95,41,0,0,0,1,-2,-1,0,-13
84,235,62,30,2,255.0,1.0,105,42,-5,-3,7,5,-2,-1,-1,-14
85,238,66,32,6,258.0,1.0,95,42,-1,-1,11,7,4,2,1,-13
86,241,67,33,7,261.0,1.0,105,43,0,0,0,1,1,1,1,-12
87,244,69,34,9,264.0,1.0,95,43,2,1,2,2,2,1,1,-11
88,247,72,36,0,267.0,2.0,105,44,5,3,5,4,1,1,1,-10
89,249,74,37,2,270.0,1.0,95,44,7,4,7,5,-2,-1,1,-9
90,252,71,35,11,273.0,2.0,105,45,4,2,4,3,9,5,-1,-10
91,254,71,35,11,276.0,1.0,95,45,4,2,4,3,-1,-1,0,-10
92,257,62,30,2,279.0,1.0,105,46,-5,-3,7,5,-5,-3,-1,-11
93,260,71,35,11,282.0,1.0,95,46,4,2,4,3,9,5,1,-10
94,263,64,31,4,285.0,1.0,105,47,-3,-2,9,6,-3,-2,-1,-11
95,266,62,30,2,288.0,3.0,95,47,-5,-3,7,5,2,1,-1,-12
