,index,midi_note_num,diatonic_note_num,chromatic_pitch_class,onset,duration,velocity,bar_count,relative_chromatic_pitch,relative_diatonic_pitch,chromatic_scale_degree,diatonic_scale_degree,chromatic_interval,diatonic_interval,parsons_code,parsons_cumsum
0,1,74,37,2,1.0,2.0,105,0,12,7,0,1,0,0,0,0
1,3,74,37,2,4.0,2.0,95,0,12,7,0,1,5,3,0,0
2,5,76,38,4,7.0,2.0,105,1,14,8,2,2,7,4,1,1
3,7,76,38,4,10.0,2.0,95,1,14,8,2,2,7,4,0,1
4,9,78,39,6,13.0,1.0,105,2,16,9,4,3,9,5,1,2
5,14,76,38,4,16.0,1.0,95,2,14,8,2,2,-2,-1,-1,1
6,17,78,39,6,19.0,1.0,105,3,16,9,4,3,-1,-1,1,2
7,20,76,38,4,22.0,1.0,95,3,14,8,2,2,2,1,-1,1
8,23,74,37,2,25.0,2.0,105,4,12,7,0,1,1,1,-1,0
9,25,74,37,2,28.0,2.0,95,4,12,7,0,1,5,3,0,0
10,27,76,38,4,31.0,2.0,105,5,14,8,2,2,7,4,1,1
11,29,76,38,4,34.0,2.0,95,5,14,8,2,2,7,4,0,1
12,31,79,40,7,37.0,1.0,105,6,17,10,5,4,10,6,1,2
13,36,78,39,6,40.0,1.0,95,6,16,9,4,3,-1,-1,-1,1
14,39,78,39,6,43.0,1.0,105,7,16,9,4,3,-1,-1,0,1
15,42,74,37,2,46.0,2.0,95,7,12,7,0,1,1,1,-1,0
16,44,74,37,2,49.0,2.0,105,8,12,7,0,1,5,3,0,0
17,46,74,37,2,52.0,2.0,95,8,12,7,0,1,5,3,0,0
18,48,76,38,4,55.0,2.0,105,9,14,8,2,2,7,4,1,1
19,50,76,38,4,58.0,2.0,95,9,14,8,2,2,7,4,0,1
20,52,78,39,6,61.0,1.0,105,10,16,9,4,3,9,5,1,2
21,57,76,38,4,64.0,1.0,95,10,14,8,2,2,-2,-1,-1,1
22,60,78,39,6,67.0,1.0,105,11,16,9,4,3,-1,-1,1,2
23,63,76,38,4,70.0,1.0,95,11,14,8,2,2,2,1,-1,1
24,66,74,37,2,73.0,2.0,105,12,12,7,0,1,1,1,-1,0
25,68,74,37,2,76.0,2.0,95,12,12,7,0,1,5,3,0,0
26,70,76,38,4,79.0,2.0,105,13,14,8,2,2,7,4,1,1
27,72,76,38,4,82.0,2.0,95,13,14,8,2,2,7,4,0,1
28,74,79,40,7,85.0,1.0,105,14,17,10,5,4,10,6,1,2
29,79,78,39,6,88.0,1.0,95,14,16,9,4,3,-1,-1,-1,1
30,82,78,39,6,91.0,1.0,105,15,16,9,4,3,-1,-1,0,1
31,85,74,37,2,94.0,2.0,95,15,12,7,0,1,1,1,-1,0
32,87,81,41,9,97.0,1.0,105,16,19,11,7,5,12,7,1,1
33,92,78,39,6,100.0,1.0,95,16,16,9,4,3,-3,-2,-1,0
34,95,81,41,9,103.0,1.0,105,17,19,11,7,5,12,7,1,1
35,100,78,39,6,106.0,1.0,95,17,16,9,4,3,-3,-2,-1,0
36,103,81,41,9,109.0,1.0,105,18,19,11,7,5,12,7,1,1
37,108,76,38,4,112.0,1.0,95,18,14,8,2,2,-5,-3,-1,0
38,111,81,41,9,115.0,1.0,105,19,19,11,7,5,12,7,1,1
39,116,76,38,4,118.0,1.0,95,19,14,8,2,2,-5,-3,-1,0
40,119,81,41,9,121.0,1.0,105,20,19,11,7,5,12,7,1,1
41,124,78,39,6,124.0,1.0,95,20,16,9,4,3,-3,-2,-1,0
42,127,81,41,9,127.0,1.0,105,21,19,11,7,5,10,6,1,1
43,132,78,39,6,130.0,1.0,95,21,16,9,4,3,-3,-2,-1,0
44,135,79,40,7,133.0,1.0,105,22,17,10,5,4,8,5,1,1
45,140,78,39,6,136.0,1.0,95,22,16,9,4,3,-1,-1,-1,0
46,143,78,39,6,139.0,1.0,105,23,16,9,4,3,-1,-1,0,0
47,146,74,37,2,142.0,2.0,95,23,12,7,0,1,1,1,-1,-1
48,148,81,41,9,145.0,1.0,105,24,19,11,7,5,12,7,1,0
49,153,78,39,6,148.0,1.0,95,24,16,9,4,3,-3,-2,-1,-1
50,156,81,41,9,151.0,1.0,105,25,19,11,7,5,12,7,1,0
51,161,78,39,6,154.0,1.0,95,25,16,9,4,3,-3,-2,-1,-1
52,164,81,41,9,157.0,1.0,105,26,19,11,7,5,12,7,1,0
53,169,76,38,4,160.0,1.0,95,26,14,8,2,2,-5,-3,-1,-1
54,172,81,41,9,163.0,1.0,105,27,19,11,7,5,12,7,1,0
55,177,76,38,4,166.0,1.0,95,27,14,8,2,2,-5,-3,-1,-1
56,180,81,41,9,169.0,1.0,105,28,19,11,7,5,12,7,1,0
57,185,78,39,6,172.0,1.0,95,28,16,9,4,3,-3,-2,-1,-1
58,188,81,41,9,175.0,1.0,105,29,19,11,7,5,10,6,1,0
59,193,78,39,6,178.0,1.0,95,29,16,9,4,3,-3,-2,-1,-1
60,196,79,40,7,181.0,1.0,105,30,17,10,5,4,8,5,1,0
61,201,78,39,6,184.0,1.0,95,30,16,9,4,3,-1,-1,-1,-1
62,204,78,39,6,187.0,1.0,105,31,16,9,4,3,-1,-1,0,-1
63,207,74,37,2,190.0,2.0,95,31,12,7,0,1,1,1,-1,-2
64,209,69,34,9,193.0,1.0,105,32,7,4,7,5,-2,-1,-1,-3
65,214,62,30,2,196.0,1.0,95,32,0,0,0,1,-7,-4,-1,-4
66,217,69,34,9,199.0,1.0,105,33,7,4,7,5,7,4,1,-3
67,220,62,30,2,202.0,1.0,95,33,0,0,0,1,-7,-4,-1,-4
68,223,67,33,7,205.0,1.0,105,34,5,3,5,4,5,3,1,-3
69,228,62,30,2,208.0,1.0,95,34,0,0,0,1,-5,-3,-1,-4
70,231,67,33,7,211.0,1.0,105,35,5,3,5,4,5,3,1,-3
71,234,62,30,2,214.0,1.0,95,35,0,0,0,1,-5,-3,-1,-4
72,237,69,34,9,217.0,1.0,105,36,7,4,7,5,7,4,1,-3
73,242,62,30,2,220.0,1.0,95,36,0,0,0,1,-7,-4,-1,-4
74,245,69,34,9,223.0,1.0,105,37,7,4,7,5,7,4,1,-3
75,248,62,30,2,226.0,1.0,95,37,0,0,0,1,-7,-4,-1,-4
76,251,79,40,7,229.0,1.0,105,38,17,10,5,4,17,10,1,-3
77,256,78,39,6,232.0,1.0,95,38,16,9,4,3,-1,-1,-1,-4
78,259,78,39,6,235.0,1.0,105,39,16,9,4,3,-1,-1,0,-4
79,262,74,37,2,238.0,2.0,95,39,12,7,0,1,1,1,-1,-5
80,264,69,34,9,241.0,1.0,105,40,7,4,7,5,-2,-1,-1,-6
81,269,62,30,2,244.0,1.0,95,40,0,0,0,1,-7,-4,-1,-7
82,272,69,34,9,247.0,1.0,105,41,7,4,7,5,7,4,1,-6
83,275,62,30,2,250.0,1.0,95,41,0,0,0,1,-7,-4,-1,-7
84,278,67,33,7,253.0,1.0,105,42,5,3,5,4,5,3,1,-6
85,283,62,30,2,256.0,1.0,95,42,0,0,0,1,-5,-3,-1,-7
86,286,67,33,7,259.0,1.0,105,43,5,3,5,4,5,3,1,-6
87,289,62,30,2,262.0,1.0,95,43,0,0,0,1,-5,-3,-1,-7
88,292,69,34,9,265.0,1.0,105,44,7,4,7,5,7,4,1,-6
89,297,62,30,2,268.0,1.0,95,44,0,0,0,1,-7,-4,-1,-7
90,300,69,34,9,271.0,1.0,105,45,7,4,7,5,7,4,1,-6
91,303,62,30,2,274.0,1.0,95,45,0,0,0,1,-7,-4,-1,-7
92,306,79,40,7,277.0,1.0,105,46,17,10,5,4,17,10,1,-6
93,311,78,39,6,280.0,1.0,95,46,16,9,4,3,-1,-1,-1,-7
94,314,78,39,6,283.0,1.0,105,47,16,9,4,3,-1,-1,0,-7
95,317,74,37,2,286.0,2.0,95,47,12,7,0,1,1,1,-1,-8
