,index,midi_note_num,diatonic_note_num,chromatic_pitch_class,onset,duration,velocity,bar_count,relative_chromatic_pitch,relative_diatonic_pitch,chromatic_scale_degree,diatonic_scale_degree,chromatic_interval,diatonic_interval,parsons_code,parsons_cumsum
0,0,72,36,0,0.0,1.0,105,0,3,2,3,3,0,0,0,0
1,6,72,36,0,4.0,1.0,105,1,3,2,3,3,-2,-1,0,0
2,10,72,36,0,8.0,1.0,105,2,3,2,3,3,-4,-2,0,0
3,15,72,36,0,12.0,1.0,105,3,3,2,3,3,-2,-1,0,0
4,18,72,36,0,16.0,1.0,95,3,3,2,3,3,-4,-2,0,0
5,24,72,36,0,20.0,1.0,105,4,3,2,3,3,-2,-1,0,0
6,28,72,36,0,24.0,1.0,105,5,3,2,3,3,-4,-2,0,0
7,33,72,36,0,28.0,1.0,105,6,3,2,3,3,-2,-1,0,0
8,36,72,36,0,32.0,1.0,95,6,3,2,3,3,-4,-2,0,0
9,41,74,37,2,36.0,1.0,105,7,5,3,5,4,-2,-1,1,1
10,45,72,36,0,40.0,1.0,105,8,3,2,3,3,5,3,-1,0
11,51,74,37,2,44.0,1.0,105,9,5,3,5,4,-2,-1,1,1
12,54,72,36,0,48.0,1.0,95,9,3,2,3,3,0,0,-1,0
13,59,74,37,2,52.0,1.0,105,10,5,3,5,4,-2,-1,1,1
14,63,72,36,0,56.0,1.0,105,11,3,2,3,3,5,3,-1,0
15,69,74,37,2,60.0,1.0,105,12,5,3,5,4,-2,-1,1,1
16,72,72,36,0,64.0,1.0,95,12,3,2,3,3,0,0,-1,0
17,78,72,36,0,68.0,1.0,105,13,3,2,3,3,-2,-1,0,0
18,82,72,36,0,72.0,1.0,105,14,3,2,3,3,-4,-2,0,0
19,87,72,36,0,76.0,1.0,105,15,3,2,3,3,-2,-1,0,0
20,90,72,36,0,80.0,1.0,95,15,3,2,3,3,-4,-2,0,0
21,96,72,36,0,84.0,1.0,105,16,3,2,3,3,-2,-1,0,0
22,100,72,36,0,88.0,1.0,105,17,3,2,3,3,-4,-2,0,0
23,105,72,36,0,92.0,1.0,105,18,3,2,3,3,-2,-1,0,0
24,108,72,36,0,96.0,1.0,95,18,3,2,3,3,-4,-2,0,0
25,113,74,37,2,100.0,1.0,105,19,5,3,5,4,-2,-1,1,1
26,117,72,36,0,104.0,1.0,105,20,3,2,3,3,5,3,-1,0
27,123,74,37,2,108.0,1.0,105,21,5,3,5,4,-2,-1,1,1
28,126,72,36,0,112.0,1.0,95,21,3,2,3,3,0,0,-1,0
29,131,74,37,2,116.0,1.0,105,22,5,3,5,4,-2,-1,1,1
30,135,72,36,0,120.0,1.0,105,23,3,2,3,3,5,3,-1,0
31,141,74,37,2,124.0,1.0,105,24,5,3,5,4,-2,-1,1,1
32,144,71,35,11,128.0,1.0,95,24,2,1,2,2,-1,-1,-1,0
33,150,71,35,11,132.0,1.0,105,25,2,1,2,2,2,1,0,0
34,154,71,35,11,136.0,1.0,105,26,2,1,2,2,2,1,0,0
35,159,71,35,11,140.0,0.5,105,27,2,1,2,2,2,1,0,0
36,164,71,35,11,144.0,1.0,95,27,2,1,2,2,2,1,0,0
37,170,71,35,11,148.0,1.0,105,28,2,1,2,2,2,1,0,0
38,174,71,35,11,152.0,1.0,105,29,2,1,2,2,2,1,0,0
39,179,71,35,11,156.0,0.5,105,30,2,1,2,2,2,1,0,0
40,184,67,33,7,160.0,1.5,95,30,-2,-1,10,7,-2,-1,-1,-1
41,188,72,36,0,164.0,1.0,105,31,3,2,3,3,-2,-1,1,0
42,193,67,33,7,168.0,1.5,105,32,-2,-1,10,7,-2,-1,-1,-1
43,197,69,34,9,172.0,1.0,105,33,0,0,0,1,-5,-3,1,0
44,201,67,33,7,176.0,1.5,95,33,-2,-1,10,7,0,0,-1,-1
45,205,72,36,0,180.0,1.0,105,34,3,2,3,3,-2,-1,1,0
46,210,67,33,7,184.0,1.5,105,35,-2,-1,10,7,-2,-1,-1,-1
47,214,69,34,9,188.0,1.0,105,36,0,0,0,1,-5,-3,1,0
48,218,71,35,11,192.0,1.0,95,36,2,1,2,2,4,2,1,1
49,224,71,35,11,196.0,1.0,105,37,2,1,2,2,2,1,0,1
50,228,71,35,11,200.0,1.0,105,38,2,1,2,2,2,1,0,1
51,233,71,35,11,204.0,0.5,105,39,2,1,2,2,2,1,0,1
52,238,71,35,11,208.0,1.0,95,39,2,1,2,2,2,1,0,1
53,244,71,35,11,212.0,1.0,105,40,2,1,2,2,2,1,0,1
54,248,71,35,11,216.0,1.0,105,41,2,1,2,2,2,1,0,1
55,253,71,35,11,220.0,0.5,105,42,2,1,2,2,2,1,0,1
56,258,67,33,7,224.0,1.5,95,42,-2,-1,10,7,-2,-1,-1,0
57,262,72,36,0,228.0,1.0,105,43,3,2,3,3,-2,-1,1,1
58,267,67,33,7,232.0,1.5,105,44,-2,-1,10,7,-2,-1,-1,0
59,271,69,34,9,236.0,1.5,105,45,0,0,0,1,-5,-3,1,1
60,274,67,33,7,240.0,1.5,95,45,-2,-1,10,7,-12,-7,-1,0
61,278,72,36,0,244.0,1.0,105,46,3,2,3,3,-2,-1,1,1
62,283,67,33,7,248.0,1.5,105,47,-2,-1,10,7,-2,-1,-1,0
63,287,69,34,9,252.0,1.0,105,48,0,0,0,1,-5,-3,1,1
64,291,69,34,9,256.0,1.0,95,48,0,0,0,1,2,1,0,1
65,295,74,37,2,260.0,1.0,105,49,5,3,5,4,-2,-1,1,2
66,300,69,34,9,264.0,1.0,105,50,0,0,0,1,-2,-1,-1,1
67,304,74,37,2,268.0,1.0,105,51,5,3,5,4,-2,-1,1,2
68,308,69,34,9,272.0,1.0,95,51,0,0,0,1,-2,-1,-1,1
69,312,74,37,2,276.0,1.0,105,52,5,3,5,4,-2,-1,1,2
70,317,69,34,9,280.0,1.0,105,53,0,0,0,1,-2,-1,-1,1
71,321,74,37,2,284.0,1.0,105,54,5,3,5,4,-2,-1,1,2
72,325,74,37,2,288.0,1.5,95,54,5,3,5,4,3,2,0,2
73,329,71,35,11,292.0,1.0,105,55,2,1,2,2,2,1,-1,1
74,333,74,37,2,296.0,1.5,105,56,5,3,5,4,5,3,1,2
75,337,71,35,11,300.0,1.0,105,57,2,1,2,2,2,1,-1,1
76,340,74,37,2,304.0,1.5,95,57,5,3,5,4,5,3,1,2
77,344,71,35,11,308.0,1.0,105,58,2,1,2,2,2,1,-1,1
78,348,74,37,2,312.0,1.5,105,59,5,3,5,4,5,3,1,2
79,352,71,35,11,316.0,1.0,105,60,2,1,2,2,2,1,-1,1
80,355,69,34,9,320.0,1.0,95,60,0,0,0,1,0,0,-1,0
81,359,74,37,2,324.0,1.0,105,61,5,3,5,4,-2,-1,1,1
82,364,69,34,9,328.0,1.0,105,62,0,0,0,1,-2,-1,-1,0
83,368,74,37,2,332.0,1.0,105,63,5,3,5,4,-2,-1,1,1
84,372,69,34,9,336.0,1.0,95,63,0,0,0,1,-2,-1,-1,0
85,376,74,37,2,340.0,1.0,105,64,5,3,5,4,-2,-1,1,1
86,381,69,34,9,344.0,1.0,105,65,0,0,0,1,-2,-1,-1,0
87,385,74,37,2,348.0,1.0,105,66,5,3,5,4,-2,-1,1,1
88,389,74,37,2,352.0,1.5,95,66,5,3,5,4,3,2,0,1
89,393,71,35,11,356.0,1.0,105,67,2,1,2,2,2,1,-1,0
90,397,74,37,2,360.0,1.5,105,68,5,3,5,4,5,3,1,1
91,401,71,35,11,364.0,1.0,105,69,2,1,2,2,2,1,-1,0
92,404,74,37,2,368.0,1.5,95,69,5,3,5,4,5,3,1,1
93,408,71,35,11,372.0,1.0,105,70,2,1,2,2,2,1,-1,0
94,412,74,37,2,376.0,1.5,105,71,5,3,5,4,5,3,1,1
95,416,71,35,11,380.0,1.0,105,72,2,1,2,2,2,1,-1,0
