,index,midi_note_num,diatonic_note_num,chromatic_pitch_class,onset,duration,velocity,bar_count,relative_chromatic_pitch,relative_diatonic_pitch,chromatic_scale_degree,diatonic_scale_degree,chromatic_interval,diatonic_interval,parsons_code,parsons_cumsum
0,0,67,33,7,0.0,3.0,105,0,7,4,7,5,0,0,0,0
1,4,65,32,5,8.0,1.0,95,0,5,3,5,4,-2,-1,-1,-1
2,7,67,33,7,12.0,2.0,105,1,7,4,7,5,2,1,1,0
3,14,76,38,4,24.0,2.0,105,2,16,9,4,3,2,1,1,1
4,19,77,39,5,32.0,1.0,95,2,17,10,5,4,3,2,1,2
5,22,72,36,0,36.0,2.0,105,3,12,7,0,1,-2,-1,-1,1
6,27,71,35,11,44.0,1.0,95,3,11,6,11,7,2,1,-1,0
7,30,67,33,7,48.0,3.0,105,4,7,4,7,5,-2,-1,-1,-1
8,34,65,32,5,56.0,1.0,95,4,5,3,5,4,-2,-1,-1,-2
9,37,67,33,7,60.0,2.0,105,5,7,4,7,5,2,1,1,-1
10,44,76,38,4,72.0,2.0,105,6,16,9,4,3,2,1,1,0
11,49,77,39,5,80.0,1.0,95,6,17,10,5,4,3,2,1,1
12,52,72,36,0,84.0,6.0,105,7,12,7,0,1,-2,-1,-1,0
13,54,67,33,7,96.0,3.0,105,8,7,4,7,5,-2,-1,-1,-1
14,58,65,32,5,104.0,1.0,95,8,5,3,5,4,-2,-1,-1,-2
15,61,67,33,7,108.0,2.0,105,9,7,4,7,5,2,1,1,-1
16,68,76,38,4,120.0,2.0,105,10,16,9,4,3,2,1,1,0
17,73,77,39,5,128.0,1.0,95,10,17,10,5,4,3,2,1,1
18,76,72,36,0,132.0,2.0,105,11,12,7,0,1,-2,-1,-1,0
19,81,71,35,11,140.0,1.0,95,11,11,6,11,7,2,1,-1,-1
20,84,67,33,7,144.0,3.0,105,12,7,4,7,5,-2,-1,-1,-2
21,88,65,32,5,152.0,1.0,95,12,5,3,5,4,-2,-1,-1,-3
22,91,67,33,7,156.0,2.0,105,13,7,4,7,5,2,1,1,-2
23,98,76,38,4,168.0,2.0,105,14,16,9,4,3,2,1,1,-1
24,103,77,39,5,176.0,1.0,95,14,17,10,5,4,3,2,1,0
25,106,72,36,0,180.0,3.0,105,15,12,7,0,1,-2,-1,-1,-1
26,110,74,37,2,188.0,1.0,95,15,14,8,2,2,2,1,1,0
27,113,79,40,7,192.0,2.0,105,16,19,11,7,5,2,1,1,1
28,118,76,38,4,200.0,1.0,95,16,16,9,4,3,-3,-2,-1,0
29,121,77,39,5,204.0,2.0,105,17,17,10,5,4,1,1,1,1
30,128,76,38,4,216.0,2.0,105,18,16,9,4,3,-1,-1,-1,0
31,133,77,39,5,224.0,1.0,95,18,17,10,5,4,3,2,1,1
32,136,72,36,0,228.0,2.0,105,19,12,7,0,1,-2,-1,-1,0
33,141,71,35,11,236.0,1.0,95,19,11,6,11,7,2,1,-1,-1
34,144,67,33,7,240.0,3.0,105,20,7,4,7,5,-2,-1,-1,-2
35,148,65,32,5,248.0,1.0,95,20,5,3,5,4,-2,-1,-1,-3
36,151,67,33,7,252.0,2.0,105,21,7,4,7,5,2,1,1,-2
37,158,76,38,4,264.0,2.0,105,22,16,9,4,3,2,1,1,-1
38,163,77,39,5,272.0,1.0,95,22,17,10,5,4,3,2,1,0
39,166,72,36,0,276.0,3.0,105,23,12,7,0,1,-2,-1,-1,-1
40,170,74,37,2,284.0,1.0,95,23,14,8,2,2,2,1,1,0
41,173,79,40,7,288.0,2.0,105,24,19,11,7,5,2,1,1,1
42,178,76,38,4,296.0,1.0,95,24,16,9,4,3,-3,-2,-1,0
43,181,77,39,5,300.0,2.0,105,25,17,10,5,4,1,1,1,1
44,188,76,38,4,312.0,2.0,105,26,16,9,4,3,-1,-1,-1,0
45,193,77,39,5,320.0,1.0,95,26,17,10,5,4,3,2,1,1
46,196,72,36,0,324.0,2.0,105,27,12,7,0,1,-2,-1,-1,0
47,201,71,35,11,332.0,1.0,95,27,11,6,11,7,2,1,-1,-1
48,204,67,33,7,336.0,3.0,105,28,7,4,7,5,-2,-1,-1,-2
49,208,65,32,5,344.0,1.0,95,28,5,3,5,4,-2,-1,-1,-3
50,211,67,33,7,348.0,2.0,105,29,7,4,7,5,2,1,1,-2
51,218,76,38,4,360.0,2.0,105,30,16,9,4,3,2,1,1,-1
52,223,77,39,5,368.0,1.0,95,30,17,10,5,4,3,2,1,0
53,226,72,36,0,372.0,6.0,105,31,12,7,0,1,-2,-1,-1,-1
54,228,67,33,7,384.0,3.0,105,32,7,4,7,5,-2,-1,-1,-2
55,232,65,32,5,392.0,1.0,95,32,5,3,5,4,-2,-1,-1,-3
56,235,67,33,7,396.0,2.0,105,33,7,4,7,5,2,1,1,-2
57,242,76,38,4,408.0,2.0,105,34,16,9,4,3,2,1,1,-1
58,247,77,39,5,416.0,1.0,95,34,17,10,5,4,3,2,1,0
59,250,72,36,0,420.0,2.0,105,35,12,7,0,1,-2,-1,-1,-1
60,255,71,35,11,428.0,1.0,95,35,11,6,11,7,2,1,-1,-2
61,258,67,33,7,432.0,3.0,105,36,7,4,7,5,-2,-1,-1,-3
62,262,65,32,5,440.0,1.0,95,36,5,3,5,4,-2,-1,-1,-4
63,265,67,33,7,444.0,2.0,105,37,7,4,7,5,2,1,1,-3
64,272,76,38,4,456.0,2.0,105,38,16,9,4,3,2,1,1,-2
65,277,77,39,5,464.0,1.0,95,38,17,10,5,4,3,2,1,-1
66,280,72,36,0,468.0,6.0,105,39,12,7,0,1,-2,-1,-1,-2
67,282,67,33,7,480.0,3.0,105,40,7,4,7,5,-2,-1,-1,-3
68,286,65,32,5,488.0,1.0,95,40,5,3,5,4,-2,-1,-1,-4
69,289,67,33,7,492.0,2.0,105,41,7,4,7,5,2,1,1,-3
70,296,76,38,4,504.0,2.0,105,42,16,9,4,3,2,1,1,-2
71,301,77,39,5,512.0,1.0,95,42,17,10,5,4,3,2,1,-1
72,304,72,36,0,516.0,2.0,105,43,12,7,0,1,-2,-1,-1,-2
73,309,71,35,11,524.0,1.0,95,43,11,6,11,7,2,1,-1,-3
74,312,67,33,7,528.0,3.0,105,44,7,4,7,5,-2,-1,-1,-4
75,316,65,32,5,536.0,1.0,95,44,5,3,5,4,-2,-1,-1,-5
76,319,67,33,7,540.0,2.0,105,45,7,4,7,5,2,1,1,-4
77,326,76,38,4,552.0,2.0,105,46,16,9,4,3,2,1,1,-3
78,331,77,39,5,560.0,1.0,95,46,17,10,5,4,3,2,1,-2
79,334,72,36,0,564.0,3.0,105,47,12,7,0,1,-2,-1,-1,-3
80,338,74,37,2,572.0,1.0,95,47,14,8,2,2,2,1,1,-2
81,341,79,40,7,576.0,2.0,105,48,19,11,7,5,2,1,1,-1
82,346,76,38,4,584.0,1.0,95,48,16,9,4,3,-3,-2,-1,-2
83,349,77,39,5,588.0,2.0,105,49,17,10,5,4,1,1,1,-1
84,356,76,38,4,600.0,2.0,105,50,16,9,4,3,-1,-1,-1,-2
85,361,77,39,5,608.0,1.0,95,50,17,10,5,4,3,2,1,-1
86,364,72,36,0,612.0,2.0,105,51,12,7,0,1,-2,-1,-1,-2
87,369,71,35,11,620.0,1.0,95,51,11,6,11,7,2,1,-1,-3
88,372,67,33,7,624.0,3.0,105,52,7,4,7,5,-2,-1,-1,-4
89,376,65,32,5,632.0,1.0,95,52,5,3,5,4,-2,-1,-1,-5
90,379,67,33,7,636.0,2.0,105,53,7,4,7,5,2,1,1,-4
91,386,76,38,4,648.0,2.0,105,54,16,9,4,3,2,1,1,-3
92,391,77,39,5,656.0,1.0,95,54,17,10,5,4,3,2,1,-2
93,394,72,36,0,660.0,3.0,105,55,12,7,0,1,-2,-1,-1,-3
94,398,74,37,2,668.0,1.0,95,55,14,8,2,2,2,1,1,-2
95,401,79,40,7,672.0,2.0,105,56,19,11,7,5,2,1,1,-1
96,406,76,38,4,680.0,1.0,95,56,16,9,4,3,-3,-2,-1,-2
97,409,77,39,5,684.0,2.0,105,57,17,10,5,4,1,1,1,-1
98,416,76,38,4,696.0,2.0,105,58,16,9,4,3,-1,-1,-1,-2
99,421,77,39,5,704.0,1.0,95,58,17,10,5,4,3,2,1,-1
100,424,72,36,0,708.0,2.0,105,59,12,7,0,1,-2,-1,-1,-2
101,429,71,35,11,716.0,1.0,95,59,11,6,11,7,2,1,-1,-3
102,432,67,33,7,720.0,3.0,105,60,7,4,7,5,-2,-1,-1,-4
103,436,65,32,5,728.0,1.0,95,60,5,3,5,4,-2,-1,-1,-5
104,439,67,33,7,732.0,2.0,105,61,7,4,7,5,2,1,1,-4
105,446,76,38,4,744.0,2.0,105,62,16,9,4,3,2,1,1,-3
106,451,77,39,5,752.0,1.0,95,62,17,10,5,4,3,2,1,-2
107,454,72,36,0,756.0,6.0,105,63,12,7,0,1,-2,-1,-1,-3
