,index,midi_note_num,diatonic_note_num,chromatic_pitch_class,onset,duration,velocity,bar_count,relative_chromatic_pitch,relative_diatonic_pitch,chromatic_scale_degree,diatonic_scale_degree,chromatic_interval,diatonic_interval,parsons_code,parsons_cumsum
0,0,73,36,1,0.0,2.0,105,0,11,6,11,7,0,0,0,0
1,3,69,34,9,4.0,1.0,95,0,7,4,7,5,0,0,-1,-1
2,7,74,37,2,8.0,1.0,105,1,12,7,0,1,5,3,1,0
3,11,79,40,7,12.0,2.0,95,1,17,10,5,4,3,2,1,1
4,14,73,36,1,16.0,2.0,105,2,11,6,11,7,-8,-5,-1,0
5,17,69,34,9,20.0,1.0,95,2,7,4,7,5,0,0,-1,-1
6,21,67,33,7,24.0,0.67,105,3,5,3,5,4,-2,-1,-1,-2
7,26,71,35,11,28.0,1.0,95,3,9,5,9,6,-2,-1,1,-1
8,31,73,36,1,32.0,2.0,105,4,11,6,11,7,6,3,1,0
9,34,69,34,9,36.0,1.0,95,4,7,4,7,5,0,0,-1,-1
10,38,74,37,2,40.0,1.0,105,5,12,7,0,1,5,3,1,0
11,42,79,40,7,44.0,2.0,95,5,17,10,5,4,3,2,1,1
12,45,79,40,7,48.0,1.0,105,6,17,10,5,4,-2,-1,0,1
13,49,76,38,4,52.0,1.0,95,6,14,8,2,2,2,1,-1,0
14,53,67,33,7,56.0,0.67,105,7,5,3,5,4,-4,-2,-1,-1
15,58,69,34,9,60.0,2.0,95,7,7,4,7,5,2,1,1,0
16,60,73,36,1,64.0,2.0,105,8,11,6,11,7,4,2,1,1
17,63,69,34,9,68.0,1.0,95,8,7,4,7,5,0,0,-1,0
18,67,74,37,2,72.0,1.0,105,9,12,7,0,1,5,3,1,1
19,71,79,40,7,76.0,2.0,95,9,17,10,5,4,3,2,1,2
20,74,73,36,1,80.0,2.0,105,10,11,6,11,7,-8,-5,-1,1
21,77,69,34,9,84.0,1.0,95,10,7,4,7,5,0,0,-1,0
22,81,67,33,7,88.0,0.67,105,11,5,3,5,4,-2,-1,-1,-1
23,86,71,35,11,92.0,1.0,95,11,9,5,9,6,-2,-1,1,0
24,91,73,36,1,96.0,2.0,105,12,11,6,11,7,6,3,1,1
25,94,69,34,9,100.0,1.0,95,12,7,4,7,5,0,0,-1,0
26,98,74,37,2,104.0,1.0,105,13,12,7,0,1,5,3,1,1
27,102,79,40,7,108.0,2.0,95,13,17,10,5,4,3,2,1,2
28,105,79,40,7,112.0,1.0,105,14,17,10,5,4,-2,-1,0,2
29,109,76,38,4,116.0,1.0,95,14,14,8,2,2,2,1,-1,1
30,113,67,33,7,120.0,0.67,105,15,5,3,5,4,-4,-2,-1,0
31,118,69,34,9,124.0,2.0,95,15,7,4,7,5,2,1,1,1
32,120,81,41,9,128.0,2.0,105,16,19,11,7,5,12,7,1,2
33,123,73,36,1,132.0,1.0,95,16,11,6,11,7,-8,-5,-1,1
34,127,67,33,7,136.0,0.67,105,17,5,3,5,4,-2,-1,-1,0
35,132,74,37,2,140.0,1.0,95,17,12,7,0,1,1,1,1,1
36,137,81,41,9,144.0,2.0,105,18,19,11,7,5,14,8,1,2
37,140,73,36,1,148.0,1.0,95,18,11,6,11,7,-8,-5,-1,1
38,144,67,33,7,152.0,0.67,105,19,5,3,5,4,-2,-1,-1,0
39,149,74,37,2,156.0,2.0,95,19,12,7,0,1,1,1,1,1
40,152,81,41,9,160.0,2.0,105,20,19,11,7,5,10,6,1,2
41,155,73,36,1,164.0,1.0,95,20,11,6,11,7,-8,-5,-1,1
42,159,67,33,7,168.0,0.67,105,21,5,3,5,4,-2,-1,-1,0
43,164,74,37,2,172.0,1.0,95,21,12,7,0,1,1,1,1,1
44,169,81,41,9,176.0,1.0,105,22,19,11,7,5,14,8,1,2
45,173,78,39,6,180.0,1.0,95,22,16,9,4,3,2,1,-1,1
46,177,71,35,11,184.0,1.0,105,23,9,5,9,6,-2,-1,-1,0
47,181,71,35,11,188.0,1.0,95,23,9,5,9,6,-2,-1,0,0
48,186,81,41,9,192.0,2.0,105,24,19,11,7,5,14,8,1,1
49,189,73,36,1,196.0,1.0,95,24,11,6,11,7,-8,-5,-1,0
50,193,67,33,7,200.0,0.67,105,25,5,3,5,4,-2,-1,-1,-1
51,198,74,37,2,204.0,1.0,95,25,12,7,0,1,1,1,1,0
52,203,81,41,9,208.0,2.0,105,26,19,11,7,5,14,8,1,1
53,206,73,36,1,212.0,1.0,95,26,11,6,11,7,-8,-5,-1,0
54,210,67,33,7,216.0,0.67,105,27,5,3,5,4,-2,-1,-1,-1
55,215,74,37,2,220.0,2.0,95,27,12,7,0,1,1,1,1,0
56,218,81,41,9,224.0,2.0,105,28,19,11,7,5,10,6,1,1
57,221,73,36,1,228.0,1.0,95,28,11,6,11,7,-8,-5,-1,0
58,225,67,33,7,232.0,0.67,105,29,5,3,5,4,-2,-1,-1,-1
59,230,74,37,2,236.0,1.0,95,29,12,7,0,1,1,1,1,0
60,235,81,41,9,240.0,1.0,105,30,19,11,7,5,14,8,1,1
61,239,78,39,6,244.0,1.0,95,30,16,9,4,3,2,1,-1,0
62,243,71,35,11,248.0,1.0,105,31,9,5,9,6,-2,-1,-1,-1
63,247,71,35,11,252.0,1.0,95,31,9,5,9,6,-2,-1,0,-1
64,252,73,36,1,256.0,1.0,105,32,11,6,11,7,6,3,1,0
65,256,73,36,1,260.0,1.0,95,32,11,6,11,7,-1,-1,0,0
66,261,71,35,11,264.0,1.0,105,33,9,5,9,6,2,1,-1,-1
67,265,71,35,11,268.0,1.0,95,33,9,5,9,6,-2,-1,0,-1
68,270,73,36,1,272.0,1.0,105,34,11,6,11,7,6,3,1,0
69,274,73,36,1,276.0,1.0,95,34,11,6,11,7,-1,-1,0,0
70,278,67,33,7,280.0,0.67,105,35,5,3,5,4,-9,-5,-1,-1
71,283,74,37,2,284.0,2.0,95,35,12,7,0,1,1,1,1,0
72,286,73,36,1,288.0,1.0,105,36,11,6,11,7,2,1,-1,-1
73,290,73,36,1,292.0,1.0,95,36,11,6,11,7,-1,-1,0,-1
74,295,71,35,11,296.0,1.0,105,37,9,5,9,6,2,1,-1,-2
75,299,71,35,11,300.0,1.0,95,37,9,5,9,6,-2,-1,0,-2
76,304,73,36,1,304.0,1.0,105,38,11,6,11,7,6,3,1,-1
77,308,73,36,1,308.0,1.0,95,38,11,6,11,7,-1,-1,0,-1
78,312,67,33,7,312.0,0.67,105,39,5,3,5,4,-9,-5,-1,-2
79,317,74,37,2,316.0,2.0,95,39,12,7,0,1,1,1,1,-1
80,320,81,41,9,320.0,2.0,105,40,19,11,7,5,10,6,1,0
81,323,73,36,1,324.0,1.0,95,40,11,6,11,7,-8,-5,-1,-1
82,328,79,40,7,328.0,2.0,105,41,17,10,5,4,10,6,1,0
83,331,74,37,2,332.0,1.0,95,41,12,7,0,1,-5,-3,-1,-1
84,336,81,41,9,336.0,2.0,105,42,19,11,7,5,14,8,1,0
85,339,73,36,1,340.0,1.0,95,42,11,6,11,7,-8,-5,-1,-1
86,343,79,40,7,344.0,1.0,105,43,17,10,5,4,1,1,1,0
87,347,71,35,11,348.0,1.0,95,43,9,5,9,6,-3,-2,-1,-1
88,352,81,41,9,352.0,2.0,105,44,19,11,7,5,14,8,1,0
89,355,73,36,1,356.0,1.0,95,44,11,6,11,7,-8,-5,-1,-1
90,360,79,40,7,360.0,2.0,105,45,17,10,5,4,10,6,1,0
91,363,74,37,2,364.0,1.0,95,45,12,7,0,1,-5,-3,-1,-1
92,368,81,41,9,368.0,2.0,105,46,19,11,7,5,14,8,1,0
93,371,73,36,1,372.0,1.0,95,46,11,6,11,7,-8,-5,-1,-1
94,375,79,40,7,376.0,1.0,105,47,17,10,5,4,1,1,1,0
95,379,71,35,11,380.0,1.0,95,47,9,5,9,6,-3,-2,-1,-1
96,384,81,41,9,384.0,2.0,105,48,19,11,7,5,14,8,1,0
97,387,73,36,1,388.0,1.0,95,48,11,6,11,7,-8,-5,-1,-1
98,392,79,40,7,392.0,1.0,105,49,17,10,5,4,10,6,1,0
99,396,71,35,11,396.0,1.0,95,49,9,5,9,6,-3,-2,-1,-1
100,401,81,41,9,400.0,1.0,105,50,19,11,7,5,14,8,1,0
101,405,78,39,6,404.0,1.0,95,50,16,9,4,3,2,1,-1,-1
102,409,71,35,11,408.0,1.0,105,51,9,5,9,6,-3,-2,-1,-2
103,413,71,35,11,412.0,1.0,95,51,9,5,9,6,-2,-1,0,-2
104,418,81,41,9,416.0,2.0,105,52,19,11,7,5,14,8,1,-1
105,421,73,36,1,420.0,1.0,95,52,11,6,11,7,-8,-5,-1,-2
106,426,79,40,7,424.0,1.0,105,53,17,10,5,4,10,6,1,-1
107,430,71,35,11,428.0,1.0,95,53,9,5,9,6,-3,-2,-1,-2
108,435,81,41,9,432.0,1.0,105,54,19,11,7,5,14,8,1,-1
109,439,78,39,6,436.0,1.0,95,54,16,9,4,3,2,1,-1,-2
110,443,71,35,11,440.0,1.0,105,55,9,5,9,6,-3,-2,-1,-3
111,447,71,35,11,444.0,1.0,95,55,9,5,9,6,-2,-1,0,-3
