,index,midi_note_num,diatonic_note_num,chromatic_pitch_class,onset,duration,velocity,bar_count,relative_chromatic_pitch,relative_diatonic_pitch,chromatic_scale_degree,diatonic_scale_degree,chromatic_interval,diatonic_interval,parsons_code,parsons_cumsum
0,1,74,37,2,1.0,1.0,105,0,12,7,0,1,0,0,0,0
1,4,76,38,4,4.0,1.0,95,0,14,8,2,2,2,1,1,1
2,7,74,37,2,7.0,1.0,95,0,12,7,0,1,5,3,-1,0
3,10,74,37,2,10.0,1.0,105,1,12,7,0,1,0,0,0,0
4,13,81,41,9,13.0,1.0,95,1,19,11,7,5,7,4,1,1
5,16,76,38,4,16.0,1.0,95,1,14,8,2,2,2,1,-1,0
6,19,78,39,6,19.0,1.0,105,2,16,9,4,3,9,5,1,1
7,22,67,33,7,22.0,1.0,95,2,5,3,5,4,-4,-2,-1,0
8,25,67,33,7,25.0,1.0,95,2,5,3,5,4,-4,-2,0,0
9,28,69,34,9,28.0,1.0,105,3,7,4,7,5,-2,-1,1,1
10,31,79,40,7,31.0,1.0,95,3,17,10,5,4,3,2,1,2
11,34,74,37,2,34.0,2.0,95,3,12,7,0,1,-2,-1,-1,1
12,36,74,37,2,37.0,1.0,105,4,12,7,0,1,5,3,0,1
13,39,76,38,4,40.0,1.0,95,4,14,8,2,2,2,1,1,2
14,42,74,37,2,43.0,1.0,95,4,12,7,0,1,5,3,-1,1
15,45,74,37,2,46.0,1.0,105,5,12,7,0,1,0,0,0,1
16,48,81,41,9,49.0,1.0,95,5,19,11,7,5,7,4,1,2
17,51,76,38,4,52.0,1.0,95,5,14,8,2,2,2,1,-1,1
18,54,78,39,6,55.0,1.0,105,6,16,9,4,3,9,5,1,2
19,57,79,40,7,58.0,1.0,95,6,17,10,5,4,8,5,1,3
20,60,67,33,7,61.0,1.0,95,6,5,3,5,4,-4,-2,-1,2
21,63,69,34,9,64.0,1.0,105,7,7,4,7,5,-2,-1,1,3
22,66,79,40,7,67.0,1.0,95,7,17,10,5,4,3,2,1,4
23,69,74,37,2,70.0,2.0,95,7,12,7,0,1,-2,-1,-1,3
24,71,69,34,9,73.0,1.0,105,8,7,4,7,5,0,0,-1,2
25,74,69,34,9,76.0,1.0,95,8,7,4,7,5,-12,-7,0,2
26,77,69,34,9,79.0,1.0,95,8,7,4,7,5,-10,-6,0,2
27,80,74,37,2,82.0,1.0,105,9,12,7,0,1,-4,-2,1,3
28,83,69,34,9,85.0,1.0,95,9,7,4,7,5,-2,-1,-1,2
29,86,71,35,11,88.0,1.0,95,9,9,5,9,6,2,1,1,3
30,89,69,34,9,91.0,1.0,105,10,7,4,7,5,-7,-4,-1,2
31,92,69,34,9,94.0,1.0,95,10,7,4,7,5,-12,-7,0,2
32,95,69,34,9,97.0,1.0,95,10,7,4,7,5,-10,-6,0,2
33,98,78,39,6,100.0,1.0,105,11,16,9,4,3,0,0,1,3
34,101,73,36,1,103.0,1.0,95,11,11,6,11,7,-1,-1,-1,2
35,104,74,37,2,106.0,2.0,95,11,12,7,0,1,-2,-1,1,3
36,106,69,34,9,109.0,1.0,105,12,7,4,7,5,0,0,-1,2
37,109,69,34,9,112.0,1.0,95,12,7,4,7,5,-12,-7,0,2
38,112,69,34,9,115.0,1.0,95,12,7,4,7,5,-10,-6,0,2
39,115,74,37,2,118.0,1.0,105,13,12,7,0,1,-4,-2,1,3
40,118,69,34,9,121.0,1.0,95,13,7,4,7,5,-2,-1,-1,2
41,121,71,35,11,124.0,1.0,95,13,9,5,9,6,2,1,1,3
42,124,69,34,9,127.0,1.0,105,14,7,4,7,5,-7,-4,-1,2
43,127,69,34,9,130.0,1.0,95,14,7,4,7,5,-12,-7,0,2
44,130,69,34,9,133.0,1.0,95,14,7,4,7,5,-10,-6,0,2
45,133,78,39,6,136.0,1.0,105,15,16,9,4,3,0,0,1,3
46,136,73,36,1,139.0,1.0,95,15,11,6,11,7,-1,-1,-1,2
47,139,74,37,2,142.0,2.0,95,15,12,7,0,1,-2,-1,1,3
48,141,74,37,2,145.0,1.0,105,16,12,7,0,1,5,3,0,3
49,144,76,38,4,148.0,1.0,95,16,14,8,2,2,2,1,1,4
50,147,74,37,2,151.0,1.0,95,16,12,7,0,1,5,3,-1,3
51,150,74,37,2,154.0,1.0,105,17,12,7,0,1,0,0,0,3
52,153,81,41,9,157.0,1.0,95,17,19,11,7,5,7,4,1,4
53,156,76,38,4,160.0,1.0,95,17,14,8,2,2,2,1,-1,3
54,159,78,39,6,163.0,1.0,105,18,16,9,4,3,9,5,1,4
55,162,67,33,7,166.0,1.0,95,18,5,3,5,4,-4,-2,-1,3
56,165,67,33,7,169.0,1.0,95,18,5,3,5,4,-4,-2,0,3
57,168,69,34,9,172.0,1.0,105,19,7,4,7,5,-2,-1,1,4
58,171,79,40,7,175.0,1.0,95,19,17,10,5,4,3,2,1,5
59,174,74,37,2,178.0,2.0,95,19,12,7,0,1,-2,-1,-1,4
60,176,74,37,2,181.0,1.0,105,20,12,7,0,1,5,3,0,4
61,179,76,38,4,184.0,1.0,95,20,14,8,2,2,2,1,1,5
62,182,74,37,2,187.0,1.0,95,20,12,7,0,1,5,3,-1,4
63,185,74,37,2,190.0,1.0,105,21,12,7,0,1,0,0,0,4
64,188,81,41,9,193.0,1.0,95,21,19,11,7,5,7,4,1,5
65,191,76,38,4,196.0,1.0,95,21,14,8,2,2,2,1,-1,4
66,194,78,39,6,199.0,1.0,105,22,16,9,4,3,9,5,1,5
67,197,79,40,7,202.0,1.0,95,22,17,10,5,4,8,5,1,6
68,200,67,33,7,205.0,1.0,95,22,5,3,5,4,-4,-2,-1,5
69,203,69,34,9,208.0,1.0,105,23,7,4,7,5,-2,-1,1,6
70,206,79,40,7,211.0,1.0,95,23,17,10,5,4,3,2,1,7
71,209,74,37,2,214.0,2.0,95,23,12,7,0,1,-2,-1,-1,6
72,211,69,34,9,217.0,1.0,105,24,7,4,7,5,0,0,-1,5
73,214,69,34,9,220.0,1.0,95,24,7,4,7,5,-12,-7,0,5
74,217,69,34,9,223.0,1.0,95,24,7,4,7,5,-10,-6,0,5
75,220,74,37,2,226.0,1.0,105,25,12,7,0,1,-4,-2,1,6
76,223,69,34,9,229.0,1.0,95,25,7,4,7,5,-2,-1,-1,5
77,226,71,35,11,232.0,1.0,95,25,9,5,9,6,2,1,1,6
78,229,69,34,9,235.0,1.0,105,26,7,4,7,5,-7,-4,-1,5
79,232,69,34,9,238.0,1.0,95,26,7,4,7,5,-12,-7,0,5
80,235,69,34,9,241.0,1.0,95,26,7,4,7,5,-10,-6,0,5
81,238,78,39,6,244.0,1.0,105,27,16,9,4,3,0,0,1,6
82,241,73,36,1,247.0,1.0,95,27,11,6,11,7,-1,-1,-1,5
83,244,74,37,2,250.0,2.0,95,27,12,7,0,1,-2,-1,1,6
84,246,69,34,9,253.0,1.0,105,28,7,4,7,5,0,0,-1,5
85,249,69,34,9,256.0,1.0,95,28,7,4,7,5,-12,-7,0,5
86,252,69,34,9,259.0,1.0,95,28,7,4,7,5,-10,-6,0,5
87,255,74,37,2,262.0,1.0,105,29,12,7,0,1,-4,-2,1,6
88,258,69,34,9,265.0,1.0,95,29,7,4,7,5,-2,-1,-1,5
89,261,71,35,11,268.0,1.0,95,29,9,5,9,6,2,1,1,6
90,264,69,34,9,271.0,1.0,105,30,7,4,7,5,-7,-4,-1,5
91,267,69,34,9,274.0,1.0,95,30,7,4,7,5,-12,-7,0,5
92,270,69,34,9,277.0,1.0,95,30,7,4,7,5,-10,-6,0,5
93,273,78,39,6,280.0,1.0,105,31,16,9,4,3,0,0,1,6
94,276,73,36,1,283.0,1.0,95,31,11,6,11,7,-1,-1,-1,5
95,279,74,37,2,286.0,9.0,95,31,12,7,0,1,-2,-1,1,6
