,index,midi_note_num,diatonic_note_num,chromatic_pitch_class,onset,duration,velocity,bar_count,relative_chromatic_pitch,relative_diatonic_pitch,chromatic_scale_degree,diatonic_scale_degree,chromatic_interval,diatonic_interval,parsons_code,parsons_cumsum
0,0,72,36,0,0.0,1.0,105,0,7,4,7,5,0,0,0,0
1,3,72,36,0,3.0,1.0,95,0,7,4,7,5,-2,-1,0,0
2,6,65,32,5,6.0,1.0,105,1,0,0,0,1,-2,-1,-1,-1
3,9,65,32,5,9.0,1.0,95,1,0,0,0,1,-2,-1,0,-1
4,12,72,36,0,12.0,1.0,105,2,7,4,7,5,3,2,1,0
5,17,72,36,0,15.0,1.0,95,2,7,4,7,5,0,0,0,0
6,20,77,39,5,18.0,1.0,105,3,12,7,0,1,1,1,1,1
7,25,81,41,9,21.0,1.0,95,3,16,9,4,3,4,2,1,2
8,28,74,37,2,24.0,1.0,105,4,9,5,9,6,-3,-2,-1,1
9,31,72,36,0,27.0,1.0,95,4,7,4,7,5,3,2,-1,0
10,34,65,32,5,30.0,1.0,105,5,0,0,0,1,-2,-1,-1,-1
11,39,67,33,7,33.0,1.0,95,5,2,1,2,2,2,1,1,0
12,42,70,35,10,36.0,1.0,105,6,5,3,5,4,8,5,1,1
13,45,72,36,0,39.0,1.0,95,6,7,4,7,5,-5,-3,1,2
14,48,65,32,5,42.0,1.0,105,7,0,0,0,1,-2,-1,-1,1
15,51,62,30,2,45.0,3.0,95,7,-3,-2,9,6,0,0,-1,0
16,52,72,36,0,48.0,1.0,105,8,7,4,7,5,10,6,1,1
17,55,72,36,0,51.0,1.0,95,8,7,4,7,5,-2,-1,0,1
18,58,65,32,5,54.0,1.0,105,9,0,0,0,1,-2,-1,-1,0
19,61,65,32,5,57.0,1.0,95,9,0,0,0,1,-2,-1,0,0
20,64,72,36,0,60.0,1.0,105,10,7,4,7,5,3,2,1,1
21,69,72,36,0,63.0,1.0,95,10,7,4,7,5,0,0,0,1
22,72,77,39,5,66.0,1.0,105,11,12,7,0,1,1,1,1,2
23,77,81,41,9,69.0,1.0,95,11,16,9,4,3,4,2,1,3
24,80,74,37,2,72.0,1.0,105,12,9,5,9,6,-3,-2,-1,2
25,83,72,36,0,75.0,1.0,95,12,7,4,7,5,3,2,-1,1
26,86,65,32,5,78.0,1.0,105,13,0,0,0,1,-2,-1,-1,0
27,91,67,33,7,81.0,1.0,95,13,2,1,2,2,2,1,1,1
28,94,70,35,10,84.0,1.0,105,14,5,3,5,4,8,5,1,2
29,97,72,36,0,87.0,1.0,95,14,7,4,7,5,-5,-3,1,3
30,100,65,32,5,90.0,1.0,105,15,0,0,0,1,-2,-1,-1,2
31,103,62,30,2,93.0,3.0,95,15,-3,-2,9,6,0,0,-1,1
32,104,57,27,9,96.0,1.0,105,16,-8,-5,4,3,-5,-3,-1,0
33,107,62,30,2,99.0,2.0,95,16,-3,-2,9,6,0,0,1,1
34,109,65,32,5,102.0,1.0,105,17,0,0,0,1,1,1,1,2
35,112,65,32,5,105.0,1.0,95,17,0,0,0,1,-2,-1,0,2
36,115,62,30,2,108.0,1.0,105,18,-3,-2,9,6,2,1,-1,1
37,118,74,37,2,111.0,1.0,95,18,9,5,9,6,0,0,1,2
38,121,72,36,0,114.0,1.0,105,19,7,4,7,5,3,2,-1,1
39,124,72,36,0,117.0,1.0,95,19,7,4,7,5,-2,-1,0,1
40,127,77,39,5,120.0,2.0,105,20,12,7,0,1,1,1,1,2
41,129,76,38,4,123.0,1.0,95,20,11,6,11,7,-5,-3,-1,1
42,132,81,41,9,126.0,1.0,105,21,16,9,4,3,9,5,1,2
43,135,72,36,0,129.0,1.0,95,21,7,4,7,5,-2,-1,-1,1
44,138,70,35,10,132.0,1.0,105,22,5,3,5,4,3,2,-1,0
45,141,74,37,2,135.0,0.5,95,22,9,5,9,6,-3,-2,1,1
46,144,65,32,5,138.0,1.0,105,23,0,0,0,1,-2,-1,-1,0
47,147,62,30,2,141.0,3.0,95,23,-3,-2,9,6,0,0,-1,-1
48,148,57,27,9,144.0,1.0,105,24,-8,-5,4,3,-5,-3,-1,-2
49,151,62,30,2,147.0,2.0,95,24,-3,-2,9,6,0,0,1,-1
50,153,65,32,5,150.0,1.0,105,25,0,0,0,1,1,1,1,0
51,156,65,32,5,153.0,1.0,95,25,0,0,0,1,-2,-1,0,0
52,159,62,30,2,156.0,1.0,105,26,-3,-2,9,6,2,1,-1,-1
53,162,74,37,2,159.0,1.0,95,26,9,5,9,6,0,0,1,0
54,165,72,36,0,162.0,1.0,105,27,7,4,7,5,3,2,-1,-1
55,168,72,36,0,165.0,1.0,95,27,7,4,7,5,-2,-1,0,-1
56,171,77,39,5,168.0,2.0,105,28,12,7,0,1,1,1,1,0
57,173,76,38,4,171.0,1.0,95,28,11,6,11,7,-5,-3,-1,-1
58,176,81,41,9,174.0,1.0,105,29,16,9,4,3,9,5,1,0
59,179,72,36,0,177.0,1.0,95,29,7,4,7,5,-2,-1,-1,-1
60,182,70,35,10,180.0,1.0,105,30,5,3,5,4,3,2,-1,-2
61,185,74,37,2,183.0,0.5,95,30,9,5,9,6,-3,-2,1,-1
62,188,65,32,5,186.0,1.0,105,31,0,0,0,1,-2,-1,-1,-2
63,191,62,30,2,189.0,3.0,95,31,-3,-2,9,6,0,0,-1,-3
64,192,74,37,2,192.0,2.0,105,32,9,5,9,6,12,7,1,-2
65,194,81,41,9,195.0,1.0,95,32,16,9,4,3,0,0,1,-1
66,197,74,37,2,198.0,1.0,105,33,9,5,9,6,-2,-1,-1,-2
67,202,74,37,2,201.0,1.0,95,33,9,5,9,6,0,0,0,-2
68,205,72,36,0,204.0,1.0,105,34,7,4,7,5,3,2,-1,-3
69,210,81,41,9,207.0,0.5,95,34,16,9,4,3,9,5,1,-2
70,213,72,36,0,210.0,1.0,105,35,7,4,7,5,-2,-1,-1,-3
71,216,65,32,5,213.0,1.0,95,35,0,0,0,1,-2,-1,-1,-4
72,221,69,34,9,216.0,1.0,105,36,4,2,4,3,4,2,1,-3
73,224,74,37,2,219.0,1.0,95,36,9,5,9,6,-7,-4,1,-2
74,227,72,36,0,222.0,1.0,105,37,7,4,7,5,3,2,-1,-3
75,230,65,32,5,225.0,1.0,95,37,0,0,0,1,-4,-2,-1,-4
76,233,70,35,10,228.0,1.0,105,38,5,3,5,4,1,1,1,-3
77,236,74,37,2,231.0,0.5,95,38,9,5,9,6,-3,-2,1,-2
78,239,65,32,5,234.0,1.0,105,39,0,0,0,1,-2,-1,-1,-3
79,242,62,30,2,237.0,3.0,95,39,-3,-2,9,6,0,0,-1,-4
80,243,74,37,2,240.0,2.0,105,40,9,5,9,6,12,7,1,-3
81,245,81,41,9,243.0,1.0,95,40,16,9,4,3,0,0,1,-2
82,248,74,37,2,246.0,1.0,105,41,9,5,9,6,-2,-1,-1,-3
83,253,74,37,2,249.0,1.0,95,41,9,5,9,6,0,0,0,-3
84,256,72,36,0,252.0,1.0,105,42,7,4,7,5,3,2,-1,-4
85,261,81,41,9,255.0,0.5,95,42,16,9,4,3,9,5,1,-3
86,264,72,36,0,258.0,1.0,105,43,7,4,7,5,-2,-1,-1,-4
87,267,65,32,5,261.0,1.0,95,43,0,0,0,1,-2,-1,-1,-5
88,272,69,34,9,264.0,1.0,105,44,4,2,4,3,4,2,1,-4
89,275,74,37,2,267.0,1.0,95,44,9,5,9,6,-7,-4,1,-3
90,278,72,36,0,270.0,1.0,105,45,7,4,7,5,3,2,-1,-4
91,281,65,32,5,273.0,1.0,95,45,0,0,0,1,-4,-2,-1,-5
92,284,70,35,10,276.0,1.0,105,46,5,3,5,4,1,1,1,-4
93,287,74,37,2,279.0,0.5,95,46,9,5,9,6,-3,-2,1,-3
94,290,65,32,5,282.0,1.0,105,47,0,0,0,1,-2,-1,-1,-4
95,293,62,30,2,285.0,3.0,95,47,-3,-2,9,6,0,0,-1,-5
