,index,midi_note_num,diatonic_note_num,chromatic_pitch_class,onset,duration,velocity,bar_count,relative_chromatic_pitch,relative_diatonic_pitch,chromatic_scale_degree,diatonic_scale_degree,chromatic_interval,diatonic_interval,parsons_code,parsons_cumsum
0,1,73,36,1,1.0,0.5,105,0,4,2,4,3,0,0,0,0
1,4,69,34,9,4.0,2.0,95,0,0,0,0,1,0,0,-1,-1
2,6,78,39,6,7.0,0.5,105,1,9,5,9,6,2,1,1,0
3,9,78,39,6,10.0,1.5,95,1,9,5,9,6,2,1,0,0
4,12,73,36,1,13.0,1.5,105,2,4,2,4,3,-8,-5,-1,-1
5,15,69,34,9,16.0,2.0,95,2,0,0,0,1,0,0,-1,-2
6,17,73,36,1,19.0,0.5,105,3,4,2,4,3,0,0,1,-1
7,20,71,35,11,22.0,2.0,95,3,2,1,2,2,2,1,-1,-2
8,22,73,36,1,25.0,1.5,105,4,4,2,4,3,-3,-2,1,-1
9,25,69,34,9,28.0,2.0,95,4,0,0,0,1,0,0,-1,-2
10,27,78,39,6,31.0,0.5,105,5,9,5,9,6,2,1,1,-1
11,30,78,39,6,34.0,1.5,95,5,9,5,9,6,2,1,0,-1
12,33,81,41,9,37.0,1.5,105,6,12,7,0,1,0,0,1,0
13,36,81,41,9,40.0,2.0,95,6,12,7,0,1,8,5,0,0
14,38,73,36,1,43.0,0.5,105,7,4,2,4,3,2,1,-1,-1
15,41,69,34,9,46.0,2.0,95,7,0,0,0,1,0,0,-1,-2
16,43,73,36,1,49.0,0.5,105,8,4,2,4,3,-3,-2,1,-1
17,46,69,34,9,52.0,2.0,95,8,0,0,0,1,0,0,-1,-2
18,48,78,39,6,55.0,0.5,105,9,9,5,9,6,2,1,1,-1
19,51,78,39,6,58.0,1.5,95,9,9,5,9,6,2,1,0,-1
20,54,73,36,1,61.0,1.5,105,10,4,2,4,3,-8,-5,-1,-2
21,57,69,34,9,64.0,2.0,95,10,0,0,0,1,0,0,-1,-3
22,59,73,36,1,67.0,0.5,105,11,4,2,4,3,0,0,1,-2
23,62,71,35,11,70.0,2.0,95,11,2,1,2,2,2,1,-1,-3
24,64,73,36,1,73.0,1.5,105,12,4,2,4,3,-3,-2,1,-2
25,67,69,34,9,76.0,2.0,95,12,0,0,0,1,0,0,-1,-3
26,69,78,39,6,79.0,0.5,105,13,9,5,9,6,2,1,1,-2
27,72,78,39,6,82.0,1.5,95,13,9,5,9,6,2,1,0,-2
28,75,81,41,9,85.0,1.5,105,14,12,7,0,1,0,0,1,-1
29,78,81,41,9,88.0,2.0,95,14,12,7,0,1,8,5,0,-1
30,80,73,36,1,91.0,0.5,105,15,4,2,4,3,2,1,-1,-2
31,83,69,34,9,94.0,2.0,95,15,0,0,0,1,0,0,-1,-3
32,85,78,39,6,97.0,1.5,105,16,9,5,9,6,2,1,1,-2
33,88,81,41,9,100.0,2.0,95,16,12,7,0,1,0,0,1,-1
34,90,78,39,6,103.0,0.5,105,17,9,5,9,6,2,1,-1,-2
35,93,78,39,6,106.0,1.5,95,17,9,5,9,6,2,1,0,-2
36,96,81,41,9,109.0,1.5,105,18,12,7,0,1,0,0,1,-1
37,99,69,34,9,112.0,2.0,95,18,0,0,0,1,-4,-2,-1,-2
38,101,71,35,11,115.0,0.5,105,19,2,1,2,2,-2,-1,1,-1
39,104,71,35,11,118.0,2.0,95,19,2,1,2,2,2,1,0,-1
40,106,78,39,6,121.0,1.5,105,20,9,5,9,6,2,1,1,0
41,109,81,41,9,124.0,2.0,95,20,12,7,0,1,0,0,1,1
42,111,78,39,6,127.0,0.5,105,21,9,5,9,6,2,1,-1,0
43,114,78,39,6,130.0,1.5,95,21,9,5,9,6,2,1,0,0
44,117,69,34,9,133.0,1.5,105,22,0,0,0,1,-12,-7,-1,-1
45,120,81,41,9,136.0,2.0,95,22,12,7,0,1,8,5,1,0
46,122,73,36,1,139.0,0.5,105,23,4,2,4,3,2,1,-1,-1
47,125,69,34,9,142.0,2.0,95,23,0,0,0,1,0,0,-1,-2
48,127,78,39,6,145.0,1.5,105,24,9,5,9,6,2,1,1,-1
49,130,81,41,9,148.0,2.0,95,24,12,7,0,1,0,0,1,0
50,132,78,39,6,151.0,0.5,105,25,9,5,9,6,2,1,-1,-1
51,135,78,39,6,154.0,1.5,95,25,9,5,9,6,2,1,0,-1
52,138,81,41,9,157.0,1.5,105,26,12,7,0,1,0,0,1,0
53,141,69,34,9,160.0,2.0,95,26,0,0,0,1,-4,-2,-1,-1
54,143,71,35,11,163.0,0.5,105,27,2,1,2,2,-2,-1,1,0
55,146,71,35,11,166.0,2.0,95,27,2,1,2,2,2,1,0,0
56,148,73,36,1,169.0,1.5,105,28,4,2,4,3,-3,-2,1,1
57,151,69,34,9,172.0,2.0,95,28,0,0,0,1,0,0,-1,0
58,153,78,39,6,175.0,0.5,105,29,9,5,9,6,2,1,1,1
59,156,78,39,6,178.0,1.5,95,29,9,5,9,6,2,1,0,1
60,159,81,41,9,181.0,1.5,105,30,12,7,0,1,0,0,1,2
61,162,81,41,9,184.0,2.0,95,30,12,7,0,1,8,5,0,2
62,164,73,36,1,187.0,0.5,105,31,4,2,4,3,2,1,-1,1
63,167,69,34,9,190.0,2.0,95,31,0,0,0,1,0,0,-1,0
64,169,69,34,9,193.0,1.5,105,32,0,0,0,1,-7,-4,0,0
65,172,73,36,1,196.0,2.0,95,32,4,2,4,3,4,2,1,1
66,174,73,36,1,199.0,1.5,105,33,4,2,4,3,-1,-1,0,1
67,177,69,34,9,202.0,1.5,95,33,0,0,0,1,-2,-1,-1,0
68,180,81,41,9,205.0,1.5,105,34,12,7,0,1,5,3,1,1
69,183,69,34,9,208.0,2.0,95,34,0,0,0,1,-4,-2,-1,0
70,185,71,35,11,211.0,0.5,105,35,2,1,2,2,-2,-1,1,1
71,188,71,35,11,214.0,2.0,95,35,2,1,2,2,2,1,0,1
72,190,69,34,9,217.0,1.5,105,36,0,0,0,1,-7,-4,-1,0
73,193,73,36,1,220.0,2.0,95,36,4,2,4,3,4,2,1,1
74,195,73,36,1,223.0,1.5,105,37,4,2,4,3,-1,-1,0,1
75,198,69,34,9,226.0,1.5,95,37,0,0,0,1,-2,-1,-1,0
76,201,81,41,9,229.0,1.5,105,38,12,7,0,1,5,3,1,1
77,204,81,41,9,232.0,2.0,95,38,12,7,0,1,8,5,0,1
78,206,73,36,1,235.0,0.5,105,39,4,2,4,3,2,1,-1,0
79,209,69,34,9,238.0,2.0,95,39,0,0,0,1,0,0,-1,-1
80,211,69,34,9,241.0,1.5,105,40,0,0,0,1,-7,-4,0,-1
81,214,73,36,1,244.0,2.0,95,40,4,2,4,3,4,2,1,0
82,216,73,36,1,247.0,1.5,105,41,4,2,4,3,-1,-1,0,0
83,219,69,34,9,250.0,1.5,95,41,0,0,0,1,-2,-1,-1,-1
84,222,81,41,9,253.0,1.5,105,42,12,7,0,1,5,3,1,0
85,225,69,34,9,256.0,2.0,95,42,0,0,0,1,-4,-2,-1,-1
86,227,71,35,11,259.0,0.5,105,43,2,1,2,2,-2,-1,1,0
87,230,71,35,11,262.0,2.0,95,43,2,1,2,2,2,1,0,0
88,232,69,34,9,265.0,1.5,105,44,0,0,0,1,-7,-4,-1,-1
89,235,73,36,1,268.0,2.0,95,44,4,2,4,3,4,2,1,0
90,237,73,36,1,271.0,1.5,105,45,4,2,4,3,-1,-1,0,0
91,240,69,34,9,274.0,1.5,95,45,0,0,0,1,-2,-1,-1,-1
92,243,81,41,9,277.0,1.5,105,46,12,7,0,1,5,3,1,0
93,246,81,41,9,280.0,2.0,95,46,12,7,0,1,8,5,0,0
94,248,73,36,1,283.0,0.5,105,47,4,2,4,3,2,1,-1,-1
95,251,69,34,9,286.0,2.0,95,47,0,0,0,1,0,0,-1,-2
96,253,78,39,6,289.0,1.5,105,48,9,5,9,6,2,1,1,-1
97,256,78,39,6,292.0,2.0,95,48,9,5,9,6,-3,-2,0,-1
98,258,81,41,9,295.0,1.5,105,49,12,7,0,1,5,3,1,0
99,261,69,34,9,298.0,1.5,95,49,0,0,0,1,-4,-2,-1,-1
100,264,81,41,9,301.0,1.5,105,50,12,7,0,1,8,5,1,0
101,267,71,35,11,304.0,2.0,95,50,2,1,2,2,-2,-1,-1,-1
102,269,71,35,11,307.0,0.5,105,51,2,1,2,2,-2,-1,0,-1
103,272,71,35,11,310.0,1.5,95,51,2,1,2,2,2,1,0,-1
104,275,78,39,6,313.0,1.5,105,52,9,5,9,6,2,1,1,0
105,278,78,39,6,316.0,2.0,95,52,9,5,9,6,-3,-2,0,0
106,280,81,41,9,319.0,1.5,105,53,12,7,0,1,5,3,1,1
107,283,69,34,9,322.0,1.5,95,53,0,0,0,1,-4,-2,-1,0
108,286,81,41,9,325.0,1.5,105,54,12,7,0,1,8,5,1,1
109,289,81,41,9,328.0,2.0,95,54,12,7,0,1,8,5,0,1
110,291,73,36,1,331.0,0.5,105,55,4,2,4,3,2,1,-1,0
111,294,69,34,9,334.0,1.5,95,55,0,0,0,1,0,0,-1,-1
112,297,78,39,6,337.0,1.5,105,56,9,5,9,6,2,1,1,0
113,300,78,39,6,340.0,2.0,95,56,9,5,9,6,-3,-2,0,0
114,302,81,41,9,343.0,1.5,105,57,12,7,0,1,5,3,1,1
115,305,69,34,9,346.0,1.5,95,57,0,0,0,1,-4,-2,-1,0
116,308,81,41,9,349.0,1.5,105,58,12,7,0,1,8,5,1,1
117,311,69,34,9,352.0,2.0,95,58,0,0,0,1,-4,-2,-1,0
118,313,71,35,11,355.0,0.5,105,59,2,1,2,2,-2,-1,1,1
119,316,71,35,11,358.0,2.0,95,59,2,1,2,2,2,1,0,1
120,318,73,36,1,361.0,1.5,105,60,4,2,4,3,-3,-2,1,2
121,321,69,34,9,364.0,2.0,95,60,0,0,0,1,-2,-1,-1,1
122,323,78,39,6,367.0,1.5,105,61,9,5,9,6,2,1,1,2
123,326,69,34,9,370.0,1.5,95,61,0,0,0,1,-12,-7,-1,1
124,329,81,41,9,373.0,1.5,105,62,12,7,0,1,8,5,1,2
125,332,81,41,9,376.0,2.0,95,62,12,7,0,1,8,5,0,2
126,334,73,36,1,379.0,0.5,105,63,4,2,4,3,2,1,-1,1
127,337,69,34,9,382.0,3.0,95,63,0,0,0,1,0,0,-1,0
