,index,midi_note_num,diatonic_note_num,chromatic_pitch_class,onset,duration,velocity,bar_count,relative_chromatic_pitch,relative_diatonic_pitch,chromatic_scale_degree,diatonic_scale_degree,chromatic_interval,diatonic_interval,parsons_code,parsons_cumsum
0,0,62,30,2,0.0,1.0,105,0,-5,-3,7,5,0,0,0,0
1,4,69,34,9,4.0,1.0,95,0,2,1,2,2,2,1,1,1
2,8,62,30,2,8.0,1.0,105,1,-5,-3,7,5,-5,-3,-1,0
3,12,72,36,0,12.0,1.0,95,1,5,3,5,4,5,3,1,1
4,16,62,30,2,16.0,1.0,105,2,-5,-3,7,5,-7,-4,-1,0
5,20,69,34,9,20.0,1.0,95,2,2,1,2,2,2,1,1,1
6,24,74,37,2,24.0,1.0,105,3,7,4,7,5,5,3,1,2
7,28,72,36,0,28.0,1.0,95,3,5,3,5,4,-2,-1,-1,1
8,32,62,30,2,32.0,1.0,105,4,-5,-3,7,5,-7,-4,-1,0
9,36,69,34,9,36.0,1.0,95,4,2,1,2,2,2,1,1,1
10,40,71,35,11,40.0,1.0,105,5,4,2,4,3,4,2,1,2
11,44,72,36,0,44.0,2.0,95,5,5,3,5,4,5,3,1,3
12,47,62,30,2,48.0,1.0,105,6,-5,-3,7,5,-7,-4,-1,2
13,51,69,34,9,52.0,1.0,95,6,2,1,2,2,2,1,1,3
14,55,74,37,2,56.0,1.0,105,7,7,4,7,5,5,3,1,4
15,59,72,36,0,60.0,1.0,95,7,5,3,5,4,-2,-1,-1,3
16,63,74,37,2,64.0,1.0,105,8,7,4,7,5,5,3,1,4
17,67,81,41,9,68.0,1.0,95,8,14,8,2,2,2,1,1,5
18,71,74,37,2,72.0,1.0,105,9,7,4,7,5,-5,-3,-1,4
19,75,81,41,9,76.0,1.0,95,9,14,8,2,2,2,1,1,5
20,79,74,37,2,80.0,1.0,105,10,7,4,7,5,-2,-1,-1,4
21,83,81,41,9,84.0,1.0,95,10,14,8,2,2,3,2,1,5
22,87,74,37,2,88.0,1.0,105,11,7,4,7,5,-4,-2,-1,4
23,91,72,36,0,92.0,1.0,95,11,5,3,5,4,-2,-1,-1,3
24,95,74,37,2,96.0,1.0,105,12,7,4,7,5,5,3,1,4
25,99,81,41,9,100.0,1.0,95,12,14,8,2,2,2,1,1,5
26,103,81,41,9,104.0,2.0,105,13,14,8,2,2,2,1,0,5
27,106,76,38,4,108.0,1.0,95,13,9,5,9,6,-3,-2,-1,4
28,110,81,41,9,112.0,2.0,105,14,14,8,2,2,2,1,1,5
29,113,76,38,4,116.0,1.0,95,14,9,5,9,6,-3,-2,-1,4
30,117,74,37,2,120.0,1.0,105,15,7,4,7,5,-2,-1,-1,3
31,121,72,36,0,124.0,1.0,95,15,5,3,5,4,-2,-1,-1,2
32,125,67,33,7,128.0,2.0,105,16,0,0,0,1,-2,-1,-1,1
33,128,71,35,11,132.0,1.0,95,16,4,2,4,3,4,2,1,2
34,132,67,33,7,136.0,2.0,105,17,0,0,0,1,0,0,-1,1
35,135,72,36,0,140.0,1.0,95,17,5,3,5,4,1,1,1,2
36,139,67,33,7,144.0,2.0,105,18,0,0,0,1,-2,-1,-1,1
37,142,71,35,11,148.0,1.0,95,18,4,2,4,3,4,2,1,2
38,146,78,39,6,152.0,1.0,105,19,11,6,11,7,2,1,1,3
39,150,72,36,0,156.0,1.0,95,19,5,3,5,4,1,1,-1,2
40,154,67,33,7,160.0,2.0,105,20,0,0,0,1,-2,-1,-1,1
41,157,69,34,9,164.0,0.5,95,20,2,1,2,2,2,1,1,2
42,161,67,33,7,168.0,2.0,105,21,0,0,0,1,0,0,-1,1
43,164,72,36,0,172.0,1.0,95,21,5,3,5,4,1,1,1,2
44,168,69,34,9,176.0,0.5,105,22,2,1,2,2,0,0,-1,1
45,172,71,35,11,180.0,1.0,95,22,4,2,4,3,2,1,1,2
46,176,74,37,2,184.0,2.0,105,23,7,4,7,5,5,3,1,3
47,179,72,36,0,188.0,1.0,95,23,5,3,5,4,-2,-1,-1,2
48,183,72,36,0,192.0,0.5,105,24,5,3,5,4,3,2,0,2
49,187,71,35,11,196.0,0.5,95,24,4,2,4,3,4,2,-1,1
50,191,71,35,11,200.0,2.0,105,25,4,2,4,3,4,2,0,1
51,194,74,37,2,204.0,1.0,95,25,7,4,7,5,2,1,1,2
52,198,72,36,0,208.0,0.5,105,26,5,3,5,4,0,0,-1,1
53,202,71,35,11,212.0,0.5,95,26,4,2,4,3,0,0,-1,0
54,206,74,37,2,216.0,2.0,105,27,7,4,7,5,5,3,1,1
55,209,72,36,0,220.0,1.0,95,27,5,3,5,4,-2,-1,-1,0
56,213,62,30,2,224.0,1.0,105,28,-5,-3,7,5,-7,-4,-1,-1
57,217,69,34,9,228.0,1.0,95,28,2,1,2,2,2,1,1,0
58,221,62,30,2,232.0,1.0,105,29,-5,-3,7,5,-5,-3,-1,-1
59,225,72,36,0,236.0,1.0,95,29,5,3,5,4,5,3,1,0
60,229,62,30,2,240.0,1.0,105,30,-5,-3,7,5,-7,-4,-1,-1
61,233,69,34,9,244.0,1.0,95,30,2,1,2,2,2,1,1,0
62,237,74,37,2,248.0,1.0,105,31,7,4,7,5,5,3,1,1
63,241,72,36,0,252.0,1.0,95,31,5,3,5,4,-2,-1,-1,0
64,245,62,30,2,256.0,1.0,105,32,-5,-3,7,5,-7,-4,-1,-1
65,249,69,34,9,260.0,1.0,95,32,2,1,2,2,2,1,1,0
66,253,71,35,11,264.0,1.0,105,33,4,2,4,3,4,2,1,1
67,257,72,36,0,268.0,2.0,95,33,5,3,5,4,5,3,1,2
68,260,62,30,2,272.0,1.0,105,34,-5,-3,7,5,-7,-4,-1,1
69,264,69,34,9,276.0,1.0,95,34,2,1,2,2,2,1,1,2
70,268,74,37,2,280.0,1.0,105,35,7,4,7,5,5,3,1,3
71,272,72,36,0,284.0,1.0,95,35,5,3,5,4,-2,-1,-1,2
72,276,74,37,2,288.0,1.0,105,36,7,4,7,5,5,3,1,3
73,280,81,41,9,292.0,1.0,95,36,14,8,2,2,2,1,1,4
74,284,74,37,2,296.0,1.0,105,37,7,4,7,5,-5,-3,-1,3
75,288,81,41,9,300.0,1.0,95,37,14,8,2,2,2,1,1,4
76,292,74,37,2,304.0,1.0,105,38,7,4,7,5,-2,-1,-1,3
77,296,81,41,9,308.0,1.0,95,38,14,8,2,2,3,2,1,4
78,300,74,37,2,312.0,1.0,105,39,7,4,7,5,-4,-2,-1,3
79,304,72,36,0,316.0,1.0,95,39,5,3,5,4,-2,-1,-1,2
80,308,74,37,2,320.0,1.0,105,40,7,4,7,5,5,3,1,3
81,312,81,41,9,324.0,1.0,95,40,14,8,2,2,2,1,1,4
82,316,81,41,9,328.0,2.0,105,41,14,8,2,2,2,1,0,4
83,319,76,38,4,332.0,1.0,95,41,9,5,9,6,-3,-2,-1,3
84,323,81,41,9,336.0,2.0,105,42,14,8,2,2,2,1,1,4
85,326,76,38,4,340.0,1.0,95,42,9,5,9,6,-3,-2,-1,3
86,330,74,37,2,344.0,1.0,105,43,7,4,7,5,-2,-1,-1,2
87,334,72,36,0,348.0,1.0,95,43,5,3,5,4,-2,-1,-1,1
88,338,67,33,7,352.0,2.0,105,44,0,0,0,1,-2,-1,-1,0
89,341,71,35,11,356.0,1.0,95,44,4,2,4,3,4,2,1,1
90,345,67,33,7,360.0,2.0,105,45,0,0,0,1,0,0,-1,0
91,348,72,36,0,364.0,1.0,95,45,5,3,5,4,1,1,1,1
92,352,67,33,7,368.0,2.0,105,46,0,0,0,1,-2,-1,-1,0
93,355,71,35,11,372.0,1.0,95,46,4,2,4,3,4,2,1,1
94,359,78,39,6,376.0,1.0,105,47,11,6,11,7,2,1,1,2
95,363,72,36,0,380.0,1.0,95,47,5,3,5,4,1,1,-1,1
96,367,67,33,7,384.0,2.0,105,48,0,0,0,1,-2,-1,-1,0
97,370,69,34,9,388.0,0.5,95,48,2,1,2,2,2,1,1,1
98,374,67,33,7,392.0,2.0,105,49,0,0,0,1,0,0,-1,0
99,377,72,36,0,396.0,1.0,95,49,5,3,5,4,1,1,1,1
100,381,69,34,9,400.0,0.5,105,50,2,1,2,2,0,0,-1,0
101,385,71,35,11,404.0,1.0,95,50,4,2,4,3,2,1,1,1
102,389,74,37,2,408.0,2.0,105,51,7,4,7,5,5,3,1,2
103,392,72,36,0,412.0,1.0,95,51,5,3,5,4,-2,-1,-1,1
104,396,72,36,0,416.0,0.5,105,52,5,3,5,4,3,2,0,1
105,400,71,35,11,420.0,0.5,95,52,4,2,4,3,4,2,-1,0
106,404,71,35,11,424.0,2.0,105,53,4,2,4,3,4,2,0,0
107,407,74,37,2,428.0,1.0,95,53,7,4,7,5,2,1,1,1
108,411,72,36,0,432.0,0.5,105,54,5,3,5,4,0,0,-1,0
109,415,71,35,11,436.0,0.5,95,54,4,2,4,3,0,0,-1,-1
110,419,74,37,2,440.0,2.0,105,55,7,4,7,5,5,3,1,0
111,422,72,36,0,444.0,1.0,95,55,5,3,5,4,-2,-1,-1,-1
