,index,midi_note_num,diatonic_note_num,chromatic_pitch_class,onset,duration,velocity,bar_count,relative_chromatic_pitch,relative_diatonic_pitch,chromatic_scale_degree,diatonic_scale_degree,chromatic_interval,diatonic_interval,parsons_code,parsons_cumsum
0,0,73,36,1,0.0,2.0,105,0,4,2,4,3,0,0,0,0
1,2,78,39,6,3.0,1.5,95,0,9,5,9,6,2,1,1,1
2,5,69,34,9,6.0,1.5,105,1,0,0,0,1,-12,-7,-1,0
3,8,73,36,1,9.0,1.0,95,1,4,2,4,3,4,2,1,1
4,11,73,36,1,12.0,2.0,105,2,4,2,4,3,4,2,0,1
5,13,81,41,9,15.0,1.5,95,2,12,7,0,1,5,3,1,2
6,16,71,35,11,18.0,1.5,105,3,2,1,2,2,-2,-1,-1,1
7,19,78,39,6,21.0,2.0,95,3,9,5,9,6,7,4,1,2
8,21,73,36,1,24.0,2.0,105,4,4,2,4,3,-3,-2,-1,1
9,23,78,39,6,27.0,1.5,95,4,9,5,9,6,2,1,1,2
10,26,69,34,9,30.0,1.5,105,5,0,0,0,1,-12,-7,-1,1
11,29,73,36,1,33.0,1.0,95,5,4,2,4,3,4,2,1,2
12,32,74,37,2,36.0,2.0,105,6,5,3,5,4,5,3,1,3
13,34,71,35,11,39.0,1.5,95,6,2,1,2,2,-2,-1,-1,2
14,37,73,36,1,42.0,2.0,105,7,4,2,4,3,2,1,1,3
15,39,78,39,6,45.0,2.0,95,7,9,5,9,6,2,1,1,4
16,41,73,36,1,48.0,2.0,105,8,4,2,4,3,-3,-2,-1,3
17,43,78,39,6,51.0,1.5,95,8,9,5,9,6,2,1,1,4
18,46,69,34,9,54.0,1.5,105,9,0,0,0,1,-12,-7,-1,3
19,49,73,36,1,57.0,1.0,95,9,4,2,4,3,4,2,1,4
20,52,73,36,1,60.0,2.0,105,10,4,2,4,3,4,2,0,4
21,54,81,41,9,63.0,1.5,95,10,12,7,0,1,5,3,1,5
22,57,71,35,11,66.0,1.5,105,11,2,1,2,2,-2,-1,-1,4
23,60,78,39,6,69.0,2.0,95,11,9,5,9,6,7,4,1,5
24,62,73,36,1,72.0,2.0,105,12,4,2,4,3,-3,-2,-1,4
25,64,78,39,6,75.0,1.5,95,12,9,5,9,6,2,1,1,5
26,67,69,34,9,78.0,1.5,105,13,0,0,0,1,-12,-7,-1,4
27,70,73,36,1,81.0,1.0,95,13,4,2,4,3,4,2,1,5
28,73,74,37,2,84.0,2.0,105,14,5,3,5,4,5,3,1,6
29,75,71,35,11,87.0,1.5,95,14,2,1,2,2,-2,-1,-1,5
30,78,73,36,1,90.0,2.0,105,15,4,2,4,3,2,1,1,6
31,80,78,39,6,93.0,2.0,95,15,9,5,9,6,2,1,1,7
32,82,81,41,9,96.0,3.0,105,16,12,7,0,1,5,3,1,8
33,83,81,41,9,99.0,3.0,95,16,12,7,0,1,0,0,0,8
34,84,73,36,1,102.0,1.5,105,17,4,2,4,3,-8,-5,-1,7
35,87,76,38,4,105.0,1.5,95,17,7,4,7,5,3,2,1,8
36,90,81,41,9,108.0,3.0,105,18,12,7,0,1,8,5,1,9
37,91,81,41,9,111.0,3.0,95,18,12,7,0,1,0,0,0,9
38,92,71,35,11,114.0,1.5,105,19,2,1,2,2,-10,-6,-1,8
39,95,78,39,6,117.0,2.0,95,19,9,5,9,6,7,4,1,9
40,97,81,41,9,120.0,3.0,105,20,12,7,0,1,5,3,1,10
41,98,81,41,9,123.0,3.0,95,20,12,7,0,1,0,0,0,10
42,99,73,36,1,126.0,1.5,105,21,4,2,4,3,-8,-5,-1,9
43,102,76,38,4,129.0,1.5,95,21,7,4,7,5,3,2,1,10
44,105,74,37,2,132.0,2.0,105,22,5,3,5,4,1,1,-1,9
45,107,71,35,11,135.0,1.5,95,22,2,1,2,2,-2,-1,-1,8
46,110,73,36,1,138.0,2.0,105,23,4,2,4,3,2,1,1,9
47,112,78,39,6,141.0,2.0,95,23,9,5,9,6,2,1,1,10
48,114,81,41,9,144.0,3.0,105,24,12,7,0,1,5,3,1,11
49,115,81,41,9,147.0,3.0,95,24,12,7,0,1,0,0,0,11
50,116,73,36,1,150.0,1.5,105,25,4,2,4,3,-8,-5,-1,10
51,119,76,38,4,153.0,1.5,95,25,7,4,7,5,3,2,1,11
52,122,81,41,9,156.0,3.0,105,26,12,7,0,1,8,5,1,12
53,123,81,41,9,159.0,3.0,95,26,12,7,0,1,0,0,0,12
54,124,71,35,11,162.0,1.5,105,27,2,1,2,2,-10,-6,-1,11
55,127,78,39,6,165.0,2.0,95,27,9,5,9,6,7,4,1,12
56,129,81,41,9,168.0,3.0,105,28,12,7,0,1,5,3,1,13
57,130,81,41,9,171.0,3.0,95,28,12,7,0,1,0,0,0,13
58,131,73,36,1,174.0,1.5,105,29,4,2,4,3,-8,-5,-1,12
59,134,76,38,4,177.0,1.5,95,29,7,4,7,5,3,2,1,13
60,137,74,37,2,180.0,2.0,105,30,5,3,5,4,1,1,-1,12
61,139,71,35,11,183.0,1.5,95,30,2,1,2,2,-2,-1,-1,11
62,142,73,36,1,186.0,2.0,105,31,4,2,4,3,2,1,1,12
63,144,78,39,6,189.0,2.0,95,31,9,5,9,6,2,1,1,13
64,146,73,36,1,192.0,2.0,105,32,4,2,4,3,-3,-2,-1,12
65,148,76,38,4,195.0,1.5,95,32,7,4,7,5,0,0,1,13
66,151,78,39,6,198.0,0.5,105,33,9,5,9,6,2,1,1,14
67,154,76,38,4,201.0,1.5,95,33,7,4,7,5,-2,-1,-1,13
68,157,73,36,1,204.0,2.0,105,34,4,2,4,3,-3,-2,-1,12
69,159,76,38,4,207.0,1.5,95,34,7,4,7,5,-2,-1,1,13
70,162,71,35,11,210.0,1.0,105,35,2,1,2,2,-5,-3,-1,12
71,165,78,39,6,213.0,2.0,95,35,9,5,9,6,2,1,1,13
72,167,73,36,1,216.0,2.0,105,36,4,2,4,3,-3,-2,-1,12
73,169,76,38,4,219.0,1.5,95,36,7,4,7,5,-2,-1,1,13
74,172,78,39,6,222.0,0.5,105,37,9,5,9,6,2,1,1,14
75,175,76,38,4,225.0,1.5,95,37,7,4,7,5,-2,-1,-1,13
76,178,74,37,2,228.0,0.5,105,38,5,3,5,4,-2,-1,-1,12
77,181,73,36,1,231.0,0.5,95,38,4,2,4,3,-1,-1,-1,11
78,184,71,35,11,234.0,1.0,105,39,2,1,2,2,-2,-1,-1,10
79,187,78,39,6,237.0,2.0,95,39,9,5,9,6,2,1,1,11
80,189,73,36,1,240.0,2.0,105,40,4,2,4,3,-3,-2,-1,10
81,191,76,38,4,243.0,1.5,95,40,7,4,7,5,0,0,1,11
82,194,78,39,6,246.0,0.5,105,41,9,5,9,6,2,1,1,12
83,197,76,38,4,249.0,1.5,95,41,7,4,7,5,-2,-1,-1,11
84,200,73,36,1,252.0,2.0,105,42,4,2,4,3,-3,-2,-1,10
85,202,76,38,4,255.0,1.5,95,42,7,4,7,5,-2,-1,1,11
86,205,71,35,11,258.0,1.0,105,43,2,1,2,2,-5,-3,-1,10
87,208,78,39,6,261.0,2.0,95,43,9,5,9,6,2,1,1,11
88,210,73,36,1,264.0,2.0,105,44,4,2,4,3,-3,-2,-1,10
89,212,76,38,4,267.0,1.5,95,44,7,4,7,5,-2,-1,1,11
90,215,78,39,6,270.0,0.5,105,45,9,5,9,6,2,1,1,12
91,218,76,38,4,273.0,1.5,95,45,7,4,7,5,-2,-1,-1,11
92,221,74,37,2,276.0,0.5,105,46,5,3,5,4,-2,-1,-1,10
93,224,73,36,1,279.0,0.5,95,46,4,2,4,3,-1,-1,-1,9
94,227,71,35,11,282.0,1.0,105,47,2,1,2,2,-2,-1,-1,8
95,230,78,39,6,285.0,2.0,95,47,9,5,9,6,2,1,1,9
96,232,76,38,4,288.0,2.0,105,48,7,4,7,5,0,0,-1,8
97,234,71,35,11,291.0,1.5,95,48,2,1,2,2,-2,-1,-1,7
98,237,73,36,1,294.0,2.0,105,49,4,2,4,3,2,1,1,8
99,239,73,36,1,297.0,1.0,95,49,4,2,4,3,-5,-3,0,8
100,242,76,38,4,300.0,2.0,105,50,7,4,7,5,7,4,1,9
101,244,71,35,11,303.0,1.5,95,50,2,1,2,2,-2,-1,-1,8
102,247,73,36,1,306.0,1.0,105,51,4,2,4,3,2,1,1,9
103,250,78,39,6,309.0,2.0,95,51,9,5,9,6,2,1,1,10
104,252,76,38,4,312.0,2.0,105,52,7,4,7,5,0,0,-1,9
105,254,71,35,11,315.0,1.5,95,52,2,1,2,2,-2,-1,-1,8
106,257,73,36,1,318.0,2.0,105,53,4,2,4,3,2,1,1,9
107,259,73,36,1,321.0,1.0,95,53,4,2,4,3,-5,-3,0,9
108,262,78,39,6,324.0,2.0,105,54,9,5,9,6,9,5,1,10
109,264,78,39,6,327.0,1.5,95,54,9,5,9,6,2,1,0,10
110,267,71,35,11,330.0,1.5,105,55,2,1,2,2,-2,-1,-1,9
111,270,78,39,6,333.0,2.0,95,55,9,5,9,6,7,4,1,10
112,272,76,38,4,336.0,2.0,105,56,7,4,7,5,0,0,-1,9
113,274,71,35,11,339.0,1.5,95,56,2,1,2,2,-2,-1,-1,8
114,277,73,36,1,342.0,2.0,105,57,4,2,4,3,2,1,1,9
115,279,73,36,1,345.0,1.0,95,57,4,2,4,3,-5,-3,0,9
116,282,76,38,4,348.0,2.0,105,58,7,4,7,5,7,4,1,10
117,284,71,35,11,351.0,1.5,95,58,2,1,2,2,-2,-1,-1,9
118,287,73,36,1,354.0,1.0,105,59,4,2,4,3,2,1,1,10
119,290,78,39,6,357.0,2.0,95,59,9,5,9,6,2,1,1,11
120,292,76,38,4,360.0,2.0,105,60,7,4,7,5,0,0,-1,10
121,294,71,35,11,363.0,1.5,95,60,2,1,2,2,-2,-1,-1,9
122,297,73,36,1,366.0,2.0,105,61,4,2,4,3,2,1,1,10
123,299,73,36,1,369.0,1.0,95,61,4,2,4,3,-5,-3,0,10
124,302,78,39,6,372.0,2.0,105,62,9,5,9,6,9,5,1,11
125,304,78,39,6,375.0,1.5,95,62,9,5,9,6,2,1,0,11
126,307,71,35,11,378.0,1.5,105,63,2,1,2,2,-2,-1,-1,10
127,310,78,39,6,381.0,2.0,95,63,9,5,9,6,7,4,1,11
