,index,midi_note_num,diatonic_note_num,chromatic_pitch_class,onset,duration,velocity,bar_count,relative_chromatic_pitch,relative_diatonic_pitch,chromatic_scale_degree,diatonic_scale_degree,chromatic_interval,diatonic_interval,parsons_code,parsons_cumsum
0,0,76,38,4,0.0,1.0,105,0,14,8,2,2,0,0,0,0
1,4,74,37,2,4.0,1.0,95,0,12,7,0,1,3,2,-1,-1
2,8,76,38,4,8.0,1.0,105,1,14,8,2,2,7,4,1,0
3,12,74,37,2,12.0,1.0,95,1,12,7,0,1,3,2,-1,-1
4,16,76,38,4,16.0,1.0,105,2,14,8,2,2,-2,-1,1,0
5,20,74,37,2,20.0,1.0,95,2,12,7,0,1,3,2,-1,-1
6,24,71,35,11,24.0,0.67,105,3,9,5,9,6,2,1,-1,-2
7,29,79,40,7,28.0,1.0,95,3,17,10,5,4,5,3,1,-1
8,33,76,38,4,32.0,1.0,105,4,14,8,2,2,2,1,-1,-2
9,37,74,37,2,36.0,1.0,95,4,12,7,0,1,3,2,-1,-3
10,41,76,38,4,40.0,1.0,105,5,14,8,2,2,7,4,1,-2
11,45,74,37,2,44.0,1.0,95,5,12,7,0,1,3,2,-1,-3
12,49,76,38,4,48.0,1.0,105,6,14,8,2,2,-2,-1,1,-2
13,53,74,37,2,52.0,1.0,95,6,12,7,0,1,3,2,-1,-3
14,57,71,35,11,56.0,0.67,105,7,9,5,9,6,2,1,-1,-4
15,62,79,40,7,60.0,1.0,95,7,17,10,5,4,5,3,1,-3
16,66,76,38,4,64.0,1.0,105,8,14,8,2,2,2,1,-1,-4
17,69,79,40,7,68.0,1.0,95,8,17,10,5,4,1,1,1,-3
18,73,76,38,4,72.0,1.0,105,9,14,8,2,2,2,1,-1,-4
19,77,74,37,2,76.0,1.0,95,9,12,7,0,1,3,2,-1,-5
20,81,76,38,4,80.0,1.0,105,10,14,8,2,2,-7,-4,1,-4
21,84,79,40,7,84.0,1.0,95,10,17,10,5,4,1,1,1,-3
22,88,79,40,7,88.0,1.0,105,11,17,10,5,4,5,3,0,-3
23,92,74,37,2,92.0,1.0,95,11,12,7,0,1,1,1,-1,-4
24,96,76,38,4,96.0,1.0,105,12,14,8,2,2,2,1,1,-3
25,99,79,40,7,100.0,1.0,95,12,17,10,5,4,1,1,1,-2
26,103,76,38,4,104.0,1.0,105,13,14,8,2,2,2,1,-1,-3
27,107,74,37,2,108.0,1.0,95,13,12,7,0,1,3,2,-1,-4
28,111,76,38,4,112.0,1.0,105,14,14,8,2,2,-7,-4,1,-3
29,114,79,40,7,116.0,1.0,95,14,17,10,5,4,1,1,1,-2
30,118,79,40,7,120.0,1.0,105,15,17,10,5,4,5,3,0,-2
31,122,74,37,2,124.0,1.0,95,15,12,7,0,1,1,1,-1,-3
32,126,76,38,4,128.0,1.0,105,16,14,8,2,2,2,1,1,-2
33,129,81,41,9,132.0,1.0,95,16,19,11,7,5,1,1,1,-1
34,133,79,40,7,136.0,1.0,105,17,17,10,5,4,1,1,-1,-2
35,137,78,39,6,140.0,0.5,95,17,16,9,4,3,-1,-1,-1,-3
36,143,76,38,4,144.0,1.0,105,18,14,8,2,2,-2,-1,-1,-4
37,146,81,41,9,148.0,1.0,95,18,19,11,7,5,1,1,1,-3
38,150,79,40,7,152.0,1.0,105,19,17,10,5,4,1,1,-1,-4
39,154,81,41,9,156.0,1.0,95,19,19,11,7,5,2,1,1,-3
40,158,76,38,4,160.0,1.0,105,20,14,8,2,2,2,1,-1,-4
41,161,81,41,9,164.0,1.0,95,20,19,11,7,5,1,1,1,-3
42,165,79,40,7,168.0,1.0,105,21,17,10,5,4,1,1,-1,-4
43,169,78,39,6,172.0,0.5,95,21,16,9,4,3,-1,-1,-1,-5
44,175,76,38,4,176.0,1.0,105,22,14,8,2,2,-2,-1,-1,-6
45,178,81,41,9,180.0,1.0,95,22,19,11,7,5,1,1,1,-5
46,182,79,40,7,184.0,1.0,105,23,17,10,5,4,1,1,-1,-6
47,186,81,41,9,188.0,1.0,95,23,19,11,7,5,2,1,1,-5
48,190,76,38,4,192.0,1.0,105,24,14,8,2,2,2,1,-1,-6
49,196,74,37,2,199.0,0.5,105,25,12,7,0,1,0,0,-1,-7
50,205,74,37,2,202.0,0.5,95,25,12,7,0,1,5,3,0,-7
51,214,73,36,1,205.0,1.0,105,26,11,6,11,7,4,2,-1,-8
52,218,74,37,2,209.0,1.0,95,26,12,7,0,1,1,1,1,-7
53,222,76,38,4,213.0,1.0,105,27,14,8,2,2,11,6,1,-6
54,228,74,37,2,220.0,0.5,105,28,12,7,0,1,0,0,-1,-7
55,237,74,37,2,223.0,0.5,95,28,12,7,0,1,5,3,0,-7
56,246,73,36,1,226.0,1.0,105,29,11,6,11,7,4,2,-1,-8
57,250,76,38,4,230.0,0.5,95,29,14,8,2,2,3,2,1,-7
58,260,76,38,4,234.0,1.0,105,30,14,8,2,2,2,1,0,-7
59,266,74,37,2,241.0,0.5,105,31,12,7,0,1,0,0,-1,-8
60,275,74,37,2,244.0,0.5,95,31,12,7,0,1,5,3,0,-8
61,284,73,36,1,247.0,1.0,105,32,11,6,11,7,4,2,-1,-9
62,288,74,37,2,251.0,1.0,95,32,12,7,0,1,1,1,1,-8
63,292,76,38,4,255.0,1.0,105,33,14,8,2,2,11,6,1,-7
64,298,74,37,2,262.0,0.5,105,34,12,7,0,1,0,0,-1,-8
65,307,74,37,2,265.0,0.5,95,34,12,7,0,1,5,3,0,-8
66,316,73,36,1,268.0,1.0,105,35,11,6,11,7,4,2,-1,-9
67,320,74,37,2,272.0,2.0,95,35,12,7,0,1,1,1,1,-8
68,322,76,38,4,276.0,1.0,105,36,14,8,2,2,2,1,1,-7
69,325,85,43,1,279.0,0.5,105,37,23,13,11,7,0,0,1,-6
70,334,85,43,1,282.0,0.5,95,37,23,13,11,7,9,5,0,-6
71,343,85,43,1,285.0,0.5,95,37,23,13,11,7,9,5,0,-6
72,352,83,42,11,288.0,1.0,105,38,21,12,9,6,7,4,-1,-7
73,358,76,38,4,294.0,1.0,105,39,14,8,2,2,-9,-5,-1,-8
74,361,85,43,1,297.0,0.5,105,40,23,13,11,7,0,0,1,-7
75,370,85,43,1,300.0,0.5,95,40,23,13,11,7,9,5,0,-7
76,379,83,42,11,303.0,1.0,105,41,21,12,9,6,7,4,-1,-8
77,383,85,43,1,307.0,2.0,95,41,23,13,11,7,2,1,1,-7
78,385,76,38,4,311.0,1.0,105,42,14,8,2,2,-9,-5,-1,-8
79,388,85,43,1,314.0,0.5,105,43,23,13,11,7,0,0,1,-7
80,397,85,43,1,317.0,0.5,95,43,23,13,11,7,9,5,0,-7
81,406,85,43,1,320.0,0.5,95,43,23,13,11,7,9,5,0,-7
82,415,83,42,11,323.0,1.0,105,44,21,12,9,6,7,4,-1,-8
83,421,76,38,4,329.0,1.0,105,45,14,8,2,2,-9,-5,-1,-9
84,424,85,43,1,332.0,0.5,105,46,23,13,11,7,0,0,1,-8
85,433,85,43,1,335.0,0.5,95,46,23,13,11,7,9,5,0,-8
86,442,83,42,11,338.0,1.0,105,47,21,12,9,6,7,4,-1,-9
87,446,81,41,9,342.0,2.0,95,47,19,11,7,5,-2,-1,-1,-10
