,index,midi_note_num,diatonic_note_num,chromatic_pitch_class,onset,duration,velocity,bar_count,relative_chromatic_pitch,relative_diatonic_pitch,chromatic_scale_degree,diatonic_scale_degree,chromatic_interval,diatonic_interval,parsons_code,parsons_cumsum
0,0,74,37,2,0.0,1.0,105,0,12,7,0,1,0,0,0,0
1,3,72,36,0,3.0,1.0,95,0,10,6,10,7,-9,-5,-1,-1
2,6,74,37,2,6.0,1.0,105,1,12,7,0,1,-7,-4,1,0
3,9,79,40,7,9.0,1.0,95,1,17,10,5,4,-2,-1,1,1
4,12,74,37,2,12.0,1.0,105,2,12,7,0,1,-2,-1,-1,0
5,15,72,36,0,15.0,1.0,95,2,10,6,10,7,-9,-5,-1,-1
6,18,82,42,10,18.0,2.0,105,3,20,12,8,6,1,1,1,0
7,20,76,38,4,21.0,1.0,95,3,14,8,2,2,-5,-3,-1,-1
8,23,74,37,2,24.0,1.0,105,4,12,7,0,1,-5,-3,-1,-2
9,26,72,36,0,27.0,1.0,95,4,10,6,10,7,-9,-5,-1,-3
10,29,69,34,9,30.0,1.0,105,5,7,4,7,5,-10,-6,-1,-4
11,32,76,38,4,33.0,1.0,95,5,14,8,2,2,-1,-1,1,-3
12,35,77,39,5,36.0,1.0,105,6,15,9,3,3,1,1,1,-2
13,38,73,36,1,39.0,1.0,95,6,11,6,11,7,-1,-1,-1,-3
14,41,74,37,2,42.0,1.0,105,7,12,7,0,1,1,1,1,-2
15,44,62,30,2,45.0,3.0,95,7,0,0,0,1,-3,-2,-1,-3
16,45,74,37,2,48.0,1.0,105,8,12,7,0,1,12,7,1,-2
17,48,72,36,0,51.0,1.0,95,8,10,6,10,7,-9,-5,-1,-3
18,51,74,37,2,54.0,1.0,105,9,12,7,0,1,-7,-4,1,-2
19,54,79,40,7,57.0,1.0,95,9,17,10,5,4,-2,-1,1,-1
20,57,74,37,2,60.0,1.0,105,10,12,7,0,1,-2,-1,-1,-2
21,60,72,36,0,63.0,1.0,95,10,10,6,10,7,-9,-5,-1,-3
22,63,82,42,10,66.0,2.0,105,11,20,12,8,6,1,1,1,-2
23,65,76,38,4,69.0,1.0,95,11,14,8,2,2,-5,-3,-1,-3
24,68,74,37,2,72.0,1.0,105,12,12,7,0,1,-5,-3,-1,-4
25,71,72,36,0,75.0,1.0,95,12,10,6,10,7,-9,-5,-1,-5
26,74,69,34,9,78.0,1.0,105,13,7,4,7,5,-10,-6,-1,-6
27,77,76,38,4,81.0,1.0,95,13,14,8,2,2,-1,-1,1,-5
28,80,77,39,5,84.0,1.0,105,14,15,9,3,3,1,1,1,-4
29,83,73,36,1,87.0,1.0,95,14,11,6,11,7,-1,-1,-1,-5
30,86,74,37,2,90.0,1.0,105,15,12,7,0,1,1,1,1,-4
31,89,62,30,2,93.0,3.0,95,15,0,0,0,1,-3,-2,-1,-5
32,90,70,35,10,96.0,1.0,105,16,8,5,8,6,8,5,1,-4
33,93,74,37,2,99.0,1.0,95,16,12,7,0,1,4,2,1,-3
34,96,70,35,10,102.0,1.0,105,17,8,5,8,6,-7,-4,-1,-4
35,99,74,37,2,105.0,1.0,95,17,12,7,0,1,4,2,1,-3
36,102,69,34,9,108.0,1.0,105,18,7,4,7,5,-8,-5,-1,-4
37,105,74,37,2,111.0,1.0,95,18,12,7,0,1,5,3,1,-3
38,108,69,34,9,114.0,1.0,105,19,7,4,7,5,-8,-5,-1,-4
39,111,74,37,2,117.0,1.0,95,19,12,7,0,1,5,3,1,-3
40,114,77,39,5,120.0,1.0,105,20,15,9,3,3,0,0,1,-2
41,117,81,41,9,123.0,1.0,95,20,19,11,7,5,4,2,1,-1
42,120,76,38,4,126.0,1.0,105,21,14,8,2,2,-1,-1,-1,-2
43,123,79,40,7,129.0,1.0,95,21,17,10,5,4,3,2,1,-1
44,126,77,39,5,132.0,1.0,105,22,15,9,3,3,1,1,-1,-2
45,129,73,36,1,135.0,1.0,95,22,11,6,11,7,-1,-1,-1,-3
46,132,74,37,2,138.0,1.0,105,23,12,7,0,1,1,1,1,-2
47,135,62,30,2,141.0,3.0,95,23,0,0,0,1,-3,-2,-1,-3
48,136,70,35,10,144.0,1.0,105,24,8,5,8,6,8,5,1,-2
49,139,74,37,2,147.0,1.0,95,24,12,7,0,1,4,2,1,-1
50,142,70,35,10,150.0,1.0,105,25,8,5,8,6,-7,-4,-1,-2
51,145,74,37,2,153.0,1.0,95,25,12,7,0,1,4,2,1,-1
52,148,69,34,9,156.0,1.0,105,26,7,4,7,5,-8,-5,-1,-2
53,151,74,37,2,159.0,1.0,95,26,12,7,0,1,5,3,1,-1
54,154,69,34,9,162.0,1.0,105,27,7,4,7,5,-8,-5,-1,-2
55,157,74,37,2,165.0,1.0,95,27,12,7,0,1,5,3,1,-1
56,160,77,39,5,168.0,1.0,105,28,15,9,3,3,0,0,1,0
57,163,81,41,9,171.0,1.0,95,28,19,11,7,5,4,2,1,1
58,166,76,38,4,174.0,1.0,105,29,14,8,2,2,-1,-1,-1,0
59,169,79,40,7,177.0,1.0,95,29,17,10,5,4,3,2,1,1
60,172,77,39,5,180.0,1.0,105,30,15,9,3,3,1,1,-1,0
61,175,73,36,1,183.0,1.0,95,30,11,6,11,7,-1,-1,-1,-1
62,178,74,37,2,186.0,1.0,105,31,12,7,0,1,1,1,1,0
63,181,62,30,2,189.0,3.0,95,31,0,0,0,1,-3,-2,-1,-1
64,182,81,41,9,192.0,1.0,105,32,19,11,7,5,19,11,1,0
65,185,79,40,7,195.0,1.0,95,32,17,10,5,4,5,3,-1,-1
66,188,81,41,9,198.0,1.0,105,33,19,11,7,5,9,5,1,0
67,191,76,38,4,201.0,1.0,95,33,14,8,2,2,2,1,-1,-1
68,194,81,41,9,204.0,1.0,105,34,19,11,7,5,12,7,1,0
69,197,79,40,7,207.0,1.0,95,34,17,10,5,4,5,3,-1,-1
70,200,82,42,10,210.0,2.0,105,35,20,12,8,6,10,6,1,0
71,202,76,38,4,213.0,1.0,95,35,14,8,2,2,-5,-3,-1,-1
72,205,81,41,9,216.0,1.0,105,36,19,11,7,5,2,1,1,0
73,208,72,36,0,219.0,1.0,95,36,10,6,10,7,-2,-1,-1,-1
74,211,79,40,7,222.0,1.0,105,37,17,10,5,4,0,0,1,0
75,214,76,38,4,225.0,1.0,95,37,14,8,2,2,0,0,-1,-1
76,217,77,39,5,228.0,1.0,105,38,15,9,3,3,1,1,1,0
77,220,73,36,1,231.0,1.0,95,38,11,6,11,7,-1,-1,-1,-1
78,223,74,37,2,234.0,1.0,105,39,12,7,0,1,1,1,1,0
79,226,62,30,2,237.0,3.0,95,39,0,0,0,1,-3,-2,-1,-1
80,227,81,41,9,240.0,1.0,105,40,19,11,7,5,19,11,1,0
81,230,79,40,7,243.0,1.0,95,40,17,10,5,4,5,3,-1,-1
82,233,81,41,9,246.0,1.0,105,41,19,11,7,5,9,5,1,0
83,236,76,38,4,249.0,1.0,95,41,14,8,2,2,2,1,-1,-1
84,239,81,41,9,252.0,1.0,105,42,19,11,7,5,12,7,1,0
85,242,79,40,7,255.0,1.0,95,42,17,10,5,4,5,3,-1,-1
86,245,82,42,10,258.0,2.0,105,43,20,12,8,6,10,6,1,0
87,247,76,38,4,261.0,1.0,95,43,14,8,2,2,-5,-3,-1,-1
88,250,81,41,9,264.0,1.0,105,44,19,11,7,5,2,1,1,0
89,253,72,36,0,267.0,1.0,95,44,10,6,10,7,-2,-1,-1,-1
90,256,79,40,7,270.0,1.0,105,45,17,10,5,4,0,0,1,0
91,259,76,38,4,273.0,1.0,95,45,14,8,2,2,0,0,-1,-1
92,262,77,39,5,276.0,1.0,105,46,15,9,3,3,1,1,1,0
93,265,73,36,1,279.0,1.0,95,46,11,6,11,7,-1,-1,-1,-1
94,268,74,37,2,282.0,1.0,105,47,12,7,0,1,1,1,1,0
95,271,62,30,2,285.0,3.0,95,47,0,0,0,1,-3,-2,-1,-1
96,272,81,41,9,288.0,2.0,105,48,19,11,7,5,19,11,1,0
97,274,77,39,5,291.0,1.0,95,48,15,9,3,3,-2,-1,-1,-1
98,277,81,41,9,294.0,2.0,105,49,19,11,7,5,7,4,1,0
99,279,77,39,5,297.0,1.0,95,49,15,9,3,3,-2,-1,-1,-1
100,282,82,42,10,300.0,2.0,105,50,20,12,8,6,8,5,1,0
101,284,79,40,7,303.0,1.0,95,50,17,10,5,4,-2,-1,-1,-1
102,287,82,42,10,306.0,2.0,105,51,20,12,8,6,6,4,1,0
103,289,79,40,7,309.0,1.0,95,51,17,10,5,4,-2,-1,-1,-1
104,292,81,41,9,312.0,1.0,105,52,19,11,7,5,5,3,1,0
105,295,79,40,7,315.0,1.0,95,52,17,10,5,4,2,1,-1,-1
106,298,77,39,5,318.0,1.0,105,53,15,9,3,3,1,1,-1,-2
107,301,76,38,4,321.0,3.0,95,53,14,8,2,2,2,1,-1,-3
108,302,77,39,5,324.0,1.0,105,54,15,9,3,3,1,1,1,-2
109,305,73,36,1,327.0,1.0,95,54,11,6,11,7,-1,-1,-1,-3
110,308,74,37,2,330.0,1.0,105,55,12,7,0,1,1,1,1,-2
111,311,62,30,2,333.0,3.0,95,55,0,0,0,1,-3,-2,-1,-3
112,312,81,41,9,336.0,2.0,105,56,19,11,7,5,19,11,1,-2
113,314,77,39,5,339.0,1.0,95,56,15,9,3,3,-2,-1,-1,-3
114,317,81,41,9,342.0,2.0,105,57,19,11,7,5,7,4,1,-2
115,319,77,39,5,345.0,1.0,95,57,15,9,3,3,-2,-1,-1,-3
116,322,82,42,10,348.0,2.0,105,58,20,12,8,6,8,5,1,-2
117,324,79,40,7,351.0,1.0,95,58,17,10,5,4,-2,-1,-1,-3
118,327,82,42,10,354.0,2.0,105,59,20,12,8,6,6,4,1,-2
119,329,79,40,7,357.0,1.0,95,59,17,10,5,4,-2,-1,-1,-3
120,332,81,41,9,360.0,1.0,105,60,19,11,7,5,5,3,1,-2
121,335,79,40,7,363.0,1.0,95,60,17,10,5,4,2,1,-1,-3
122,338,77,39,5,366.0,1.0,105,61,15,9,3,3,1,1,-1,-4
123,341,76,38,4,369.0,3.0,95,61,14,8,2,2,2,1,-1,-5
124,342,77,39,5,372.0,1.0,105,62,15,9,3,3,1,1,1,-4
125,345,73,36,1,375.0,1.0,95,62,11,6,11,7,-1,-1,-1,-5
126,348,74,37,2,378.0,1.0,105,63,12,7,0,1,1,1,1,-4
127,351,62,30,2,381.0,3.0,95,63,0,0,0,1,-3,-2,-1,-5
128,352,79,40,7,384.0,1.0,105,64,17,10,5,4,17,10,1,-4
129,355,77,39,5,387.0,1.0,95,64,15,9,3,3,-4,-2,-1,-5
130,358,76,38,4,390.0,1.0,105,65,14,8,2,2,-5,-3,-1,-6
131,361,77,39,5,393.0,1.0,95,65,15,9,3,3,-4,-2,1,-5
132,364,76,38,4,396.0,1.0,105,66,14,8,2,2,-5,-3,-1,-6
133,367,77,39,5,399.0,1.0,95,66,15,9,3,3,1,1,1,-5
134,370,79,40,7,402.0,1.0,105,67,17,10,5,4,-2,-1,1,-4
135,373,77,39,5,405.0,1.0,95,67,15,9,3,3,-4,-2,-1,-5
136,376,76,38,4,408.0,1.0,105,68,14,8,2,2,-5,-3,-1,-6
137,379,77,39,5,411.0,2.0,95,68,15,9,3,3,1,1,1,-5
138,381,77,39,5,414.0,1.0,105,69,15,9,3,3,0,0,0,-5
139,384,73,36,1,417.0,1.0,95,69,11,6,11,7,-1,-1,-1,-6
140,387,74,37,2,420.0,1.0,105,70,12,7,0,1,1,1,1,-5
141,390,62,30,2,423.0,3.0,95,70,0,0,0,1,-3,-2,-1,-6
142,391,79,40,7,426.0,1.0,105,71,17,10,5,4,17,10,1,-5
143,394,77,39,5,429.0,1.0,95,71,15,9,3,3,-4,-2,-1,-6
144,397,76,38,4,432.0,1.0,105,72,14,8,2,2,-5,-3,-1,-7
145,400,77,39,5,435.0,1.0,95,72,15,9,3,3,-4,-2,1,-6
146,403,76,38,4,438.0,1.0,105,73,14,8,2,2,-5,-3,-1,-7
147,406,77,39,5,441.0,1.0,95,73,15,9,3,3,1,1,1,-6
148,409,79,40,7,444.0,1.0,105,74,17,10,5,4,-2,-1,1,-5
149,412,77,39,5,447.0,1.0,95,74,15,9,3,3,-4,-2,-1,-6
150,415,76,38,4,450.0,1.0,105,75,14,8,2,2,-5,-3,-1,-7
151,418,77,39,5,453.0,2.0,95,75,15,9,3,3,1,1,1,-6
152,420,77,39,5,456.0,1.0,105,76,15,9,3,3,0,0,0,-6
153,423,73,36,1,459.0,1.0,95,76,11,6,11,7,-1,-1,-1,-7
154,426,74,37,2,462.0,1.0,105,77,12,7,0,1,1,1,1,-6
155,429,62,30,2,465.0,3.0,95,77,0,0,0,1,-3,-2,-1,-7
