,index,midi_note_num,diatonic_note_num,chromatic_pitch_class,onset,duration,velocity,bar_count,relative_chromatic_pitch,relative_diatonic_pitch,chromatic_scale_degree,diatonic_scale_degree,chromatic_interval,diatonic_interval,parsons_code,parsons_cumsum
0,0,76,38,4,0.0,2.0,105,0,16,9,4,3,0,0,0,0
1,2,79,40,7,4.0,1.0,95,0,19,11,7,5,0,0,1,1
2,6,76,38,4,8.0,1.0,105,1,16,9,4,3,-1,-1,-1,0
3,10,72,36,0,12.0,2.0,95,1,12,7,0,1,-2,-1,-1,-1
4,11,69,34,9,16.0,2.0,105,2,9,5,9,6,-3,-2,-1,-2
5,13,77,39,5,20.0,1.0,95,2,17,10,5,4,8,5,1,-1
6,17,71,35,11,24.0,1.0,105,3,11,6,11,7,-1,-1,-1,-2
7,21,67,33,7,28.0,2.0,95,3,7,4,7,5,-4,-2,-1,-3
8,24,72,36,0,32.0,2.0,105,4,12,7,0,1,-2,-1,1,-2
9,26,76,38,4,36.0,1.0,95,4,16,9,4,3,-3,-2,1,-1
10,30,81,41,9,40.0,1.0,105,5,21,12,9,6,5,3,1,0
11,34,74,37,2,44.0,2.0,95,5,14,8,2,2,-2,-1,-1,-1
12,35,77,39,5,48.0,1.0,105,6,17,10,5,4,3,2,1,0
13,39,71,35,11,52.0,2.0,95,6,11,6,11,7,-1,-1,-1,-1
14,41,74,37,2,56.0,2.0,105,7,14,8,2,2,2,1,1,0
15,43,69,34,9,60.0,2.0,95,7,9,5,9,6,-7,-4,-1,-1
16,44,67,33,7,64.0,2.0,105,8,7,4,7,5,-2,-1,-1,-2
17,47,65,32,5,68.0,2.0,95,8,5,3,5,4,-2,-1,-1,-3
18,50,64,31,4,72.0,2.0,105,9,4,2,4,3,-1,-1,-1,-4
19,53,62,30,2,76.0,2.0,95,9,2,1,2,2,-2,-1,-1,-5
20,55,74,37,2,80.0,2.0,105,10,14,8,2,2,14,8,1,-4
21,58,72,36,0,84.0,2.0,95,10,12,7,0,1,-2,-1,-1,-5
22,61,71,35,11,88.0,2.0,105,11,11,6,11,7,-1,-1,-1,-6
23,64,69,34,9,92.0,2.0,95,11,9,5,9,6,-2,-1,-1,-7
24,66,67,33,7,96.0,2.0,105,12,7,4,7,5,0,0,-1,-8
25,68,77,39,5,100.0,2.0,95,12,17,10,5,4,1,1,1,-7
26,70,74,37,2,104.0,4.0,105,13,14,8,2,2,-2,-1,-1,-8
27,72,69,34,9,112.0,1.0,105,14,9,5,9,6,2,1,-1,-9
28,76,65,32,5,116.0,1.0,95,14,5,3,5,4,1,1,-1,-10
29,80,72,36,0,120.0,4.0,105,15,12,7,0,1,12,7,1,-9
30,81,72,36,0,124.0,2.0,95,15,12,7,0,1,0,0,0,-9
31,82,67,33,7,128.0,2.0,105,16,7,4,7,5,-5,-3,-1,-10
32,85,60,29,0,132.0,2.0,95,16,0,0,0,1,-4,-2,-1,-11
33,87,60,29,0,136.0,2.0,105,17,0,0,0,1,5,3,0,-11
34,89,67,33,7,140.0,2.0,95,17,7,4,7,5,3,2,1,-10
35,91,69,34,9,144.0,1.0,105,18,9,5,9,6,5,3,1,-9
36,95,62,30,2,148.0,2.0,95,18,2,1,2,2,-3,-2,-1,-10
37,97,62,30,2,152.0,2.0,105,19,2,1,2,2,5,3,0,-10
38,99,69,34,9,156.0,2.0,95,19,9,5,9,6,4,2,1,-9
39,101,64,31,4,160.0,1.0,105,20,4,2,4,3,-1,-1,-1,-10
40,105,67,33,7,164.0,4.0,95,20,7,4,7,5,0,0,1,-9
41,106,65,32,5,168.0,1.0,105,21,5,3,5,4,-2,-1,-1,-10
42,110,69,34,9,172.0,4.0,95,21,9,5,9,6,0,0,1,-9
43,111,71,35,11,176.0,1.0,105,22,11,6,11,7,2,1,1,-8
44,115,74,37,2,180.0,4.0,95,22,14,8,2,2,0,0,1,-7
45,116,72,36,0,184.0,1.0,105,23,12,7,0,1,-2,-1,-1,-8
46,120,79,40,7,188.0,3.0,95,23,19,11,7,5,2,1,1,-7
47,122,74,37,2,192.0,2.0,105,24,14,8,2,2,-3,-2,-1,-8
48,124,79,40,7,196.0,1.0,95,24,19,11,7,5,0,0,1,-7
49,128,77,39,5,200.0,2.0,105,25,17,10,5,4,1,1,-1,-8
50,130,84,43,0,204.0,1.0,95,25,24,14,0,1,0,0,1,-7
51,134,84,43,0,208.0,2.0,105,26,24,14,0,1,-2,-1,0,-7
52,136,81,41,9,212.0,2.0,95,26,21,12,9,6,-2,-1,-1,-8
53,138,67,33,7,216.0,2.0,105,27,7,4,7,5,-2,-1,-1,-9
54,140,64,31,4,220.0,2.0,95,27,4,2,4,3,-1,-1,-1,-10
55,142,81,41,9,224.0,1.0,105,28,21,12,9,6,5,3,1,-9
56,146,74,37,2,228.0,2.0,95,28,14,8,2,2,-2,-1,-1,-10
57,148,79,40,7,232.0,1.0,105,29,19,11,7,5,5,3,1,-9
58,152,72,36,0,236.0,2.0,95,29,12,7,0,1,-2,-1,-1,-10
59,154,74,37,2,240.0,1.0,105,30,14,8,2,2,2,1,1,-9
60,158,71,35,11,244.0,1.0,95,30,11,6,11,7,-1,-1,-1,-10
61,162,67,33,7,248.0,2.0,105,31,7,4,7,5,-2,-1,-1,-11
62,164,67,33,7,252.0,2.0,95,31,7,4,7,5,0,0,0,-11
63,167,72,36,0,256.0,1.0,105,32,12,7,0,1,1,1,1,-10
64,171,72,36,0,260.0,1.0,95,32,12,7,0,1,5,3,0,-10
65,175,72,36,0,264.0,4.0,105,33,12,7,0,1,5,3,0,-10
66,178,74,37,2,272.0,1.0,105,34,14,8,2,2,2,1,1,-9
67,182,74,37,2,276.0,1.0,95,34,14,8,2,2,5,3,0,-9
68,186,74,37,2,280.0,4.0,105,35,14,8,2,2,5,3,0,-9
69,189,64,31,4,288.0,2.0,105,36,4,2,4,3,-1,-1,-1,-10
70,191,72,36,0,292.0,2.0,95,36,12,7,0,1,5,3,1,-9
71,194,69,34,9,296.0,2.0,105,37,9,5,9,6,-2,-1,-1,-10
72,196,77,39,5,300.0,2.0,95,37,17,10,5,4,5,3,1,-9
73,198,74,37,2,304.0,1.0,105,38,14,8,2,2,-2,-1,-1,-10
74,202,72,36,0,308.0,1.0,95,38,12,7,0,1,0,0,-1,-11
75,206,72,36,0,312.0,4.0,105,39,12,7,0,1,1,1,0,-11
76,207,72,36,0,316.0,2.0,95,39,12,7,0,1,0,0,0,-11
