,index,midi_note_num,diatonic_note_num,chromatic_pitch_class,onset,duration,velocity,bar_count,relative_chromatic_pitch,relative_diatonic_pitch,chromatic_scale_degree,diatonic_scale_degree,chromatic_interval,diatonic_interval,parsons_code,parsons_cumsum
0,0,65,32,5,0.0,2.0,105,0,0,0,0,1,0,0,0,0
1,3,65,32,5,4.0,2.0,95,0,0,0,0,1,1,1,0,0
2,5,69,34,9,8.0,1.0,105,1,4,2,4,3,4,2,1,1
3,9,65,32,5,12.0,1.0,95,1,0,0,0,1,1,1,-1,0
4,12,67,33,7,16.0,1.0,105,2,2,1,2,2,2,1,1,1
5,16,67,33,7,20.0,2.0,95,2,2,1,2,2,7,4,0,1
6,18,70,35,10,24.0,1.0,105,3,5,3,5,4,3,2,1,2
7,22,70,35,10,28.0,4.0,95,3,5,3,5,4,1,1,0,2
8,23,69,34,9,32.0,1.0,105,4,4,2,4,3,-1,-1,-1,1
9,28,70,35,10,36.0,1.0,95,4,5,3,5,4,-2,-1,1,2
10,33,69,34,9,40.0,1.0,105,5,4,2,4,3,-5,-3,-1,1
11,38,70,35,10,44.0,1.0,95,5,5,3,5,4,-2,-1,1,2
12,42,64,31,4,48.0,2.0,105,6,-1,-1,11,7,-1,-1,-1,1
13,45,62,30,2,52.0,2.0,95,6,-3,-2,9,6,2,1,-1,0
14,48,60,29,0,56.0,4.0,105,7,-5,-3,7,5,2,1,-1,-1
15,49,60,29,0,60.0,4.0,95,7,-5,-3,7,5,0,0,0,-1
16,50,65,32,5,64.0,1.0,105,8,0,0,0,1,5,3,1,0
17,54,72,36,0,68.0,2.0,95,8,7,4,7,5,2,1,1,1
18,56,70,35,10,72.0,0.5,105,9,5,3,5,4,-2,-1,-1,0
19,61,70,35,10,76.0,4.0,95,9,5,3,5,4,0,0,0,0
20,62,69,34,9,80.0,1.0,105,10,4,2,4,3,-1,-1,-1,-1
21,67,70,35,10,84.0,1.0,95,10,5,3,5,4,-2,-1,1,0
22,71,67,33,7,88.0,1.0,105,11,2,1,2,2,2,1,-1,-1
23,75,67,33,7,92.0,2.0,95,11,2,1,2,2,2,1,0,-1
24,77,65,32,5,96.0,2.0,105,12,0,0,0,1,-2,-1,-1,-2
25,79,76,38,4,100.0,1.0,95,12,11,6,11,7,-1,-1,1,-1
26,83,77,39,5,104.0,1.0,105,13,12,7,0,1,1,1,1,0
27,87,70,35,10,108.0,3.0,95,13,5,3,5,4,-2,-1,-1,-1
28,90,72,36,0,112.0,1.0,105,14,7,4,7,5,2,1,1,0
29,94,65,32,5,116.0,1.0,95,14,0,0,0,1,-2,-1,-1,-1
30,98,65,32,5,120.0,4.0,105,15,0,0,0,1,1,1,0,-1
31,99,65,32,5,124.0,4.0,95,15,0,0,0,1,0,0,0,-1
32,100,84,43,0,128.0,2.0,105,16,19,11,7,5,19,11,1,0
33,103,77,39,5,132.0,2.0,95,16,12,7,0,1,-2,-1,-1,-1
34,105,76,38,4,136.0,1.0,105,17,11,6,11,7,-1,-1,-1,-2
35,109,72,36,0,140.0,3.0,95,17,7,4,7,5,-4,-2,-1,-3
36,111,76,38,4,144.0,1.0,105,18,11,6,11,7,-1,-1,1,-2
37,115,72,36,0,148.0,1.0,95,18,7,4,7,5,-4,-2,-1,-3
38,119,79,40,7,152.0,2.0,105,19,14,8,2,2,2,1,1,-2
39,121,79,40,7,156.0,4.0,95,19,14,8,2,2,-2,-1,0,-2
40,122,81,41,9,160.0,2.0,105,20,16,9,4,3,2,1,1,-1
41,126,82,42,10,164.0,1.0,95,20,17,10,5,4,1,1,1,0
42,130,76,38,4,168.0,2.0,105,21,11,6,11,7,-1,-1,-1,-1
43,134,77,39,5,172.0,1.0,95,21,12,7,0,1,1,1,1,0
44,138,82,42,10,176.0,2.0,105,22,17,10,5,4,10,6,1,1
45,142,84,43,0,180.0,1.0,95,22,19,11,7,5,2,1,1,2
46,146,77,39,5,184.0,2.0,105,23,12,7,0,1,-2,-1,-1,1
47,150,79,40,7,188.0,1.0,95,23,14,8,2,2,2,1,1,2
48,154,84,43,0,192.0,2.0,105,24,19,11,7,5,10,6,1,3
49,158,86,44,2,196.0,1.0,95,24,21,12,9,6,2,1,1,4
50,162,79,40,7,200.0,1.0,105,25,14,8,2,2,-2,-1,-1,3
51,166,82,42,10,204.0,3.0,95,25,17,10,5,4,1,1,1,4
52,169,79,40,7,208.0,1.0,105,26,14,8,2,2,2,1,-1,3
53,173,72,36,0,212.0,2.0,95,26,7,4,7,5,-2,-1,-1,2
54,176,77,39,5,216.0,2.0,105,27,12,7,0,1,1,1,1,3
55,179,65,32,5,220.0,4.0,95,27,0,0,0,1,-2,-1,-1,2
56,180,72,36,0,224.0,1.0,105,28,7,4,7,5,7,4,1,3
57,183,72,36,0,227.0,1.0,95,28,7,4,7,5,0,0,0,3
58,186,77,39,5,230.0,3.0,105,29,12,7,0,1,12,7,1,4
59,187,76,38,4,233.0,2.0,95,29,11,6,11,7,-1,-1,-1,3
60,189,72,36,0,236.0,1.0,105,30,7,4,7,5,-2,-1,-1,2
61,192,72,36,0,239.0,1.0,95,30,7,4,7,5,0,0,0,2
62,195,70,35,10,242.0,3.0,105,31,5,3,5,4,5,3,-1,1
63,196,69,34,9,245.0,2.0,95,31,4,2,4,3,-1,-1,-1,0
64,198,69,34,9,248.0,0.5,105,32,4,2,4,3,2,1,0,0
65,202,72,36,0,251.0,1.0,95,32,7,4,7,5,0,0,1,1
66,205,82,42,10,254.0,3.0,105,33,17,10,5,4,10,6,1,2
67,206,81,41,9,257.0,2.0,95,33,16,9,4,3,-1,-1,-1,1
68,208,79,40,7,260.0,1.0,105,34,14,8,2,2,0,0,-1,0
69,211,79,40,7,263.0,1.0,95,34,14,8,2,2,0,0,0,0
70,214,77,39,5,266.0,3.0,105,35,12,7,0,1,5,3,-1,-1
71,215,77,39,5,269.0,3.0,95,35,12,7,0,1,0,0,0,-1
72,216,81,41,9,272.0,1.0,105,36,16,9,4,3,4,2,1,0
73,219,84,43,0,275.0,1.0,95,36,19,11,7,5,0,0,1,1
74,222,76,38,4,278.0,1.0,105,37,11,6,11,7,-8,-5,-1,0
75,225,79,40,7,281.0,1.0,95,37,14,8,2,2,0,0,1,1
76,228,81,41,9,284.0,1.0,105,38,16,9,4,3,-1,-1,1,2
77,231,76,38,4,287.0,1.0,95,38,11,6,11,7,-1,-1,-1,1
78,234,72,36,0,290.0,3.0,105,39,7,4,7,5,-7,-4,-1,0
79,235,72,36,0,293.0,3.0,95,39,7,4,7,5,0,0,0,0
80,236,69,34,9,296.0,1.0,105,40,4,2,4,3,-3,-2,-1,-1
81,239,69,34,9,299.0,1.0,95,40,4,2,4,3,-3,-2,0,-1
82,242,74,37,2,302.0,1.0,105,41,9,5,9,6,2,1,1,0
83,245,74,37,2,305.0,1.0,95,41,9,5,9,6,-3,-2,0,0
84,248,81,41,9,308.0,1.0,105,42,16,9,4,3,-1,-1,1,1
85,251,76,38,4,311.0,0.5,95,42,11,6,11,7,-1,-1,-1,0
86,255,77,39,5,314.0,3.0,105,43,12,7,0,1,1,1,1,1
87,256,77,39,5,317.0,3.0,95,43,12,7,0,1,0,0,0,1
