,index,midi_note_num,diatonic_note_num,chromatic_pitch_class,onset,duration,velocity,bar_count,relative_chromatic_pitch,relative_diatonic_pitch,chromatic_scale_degree,diatonic_scale_degree,chromatic_interval,diatonic_interval,parsons_code,parsons_cumsum
0,0,64,31,4,0.0,1.0,105,0,2,1,2,2,0,0,0,0
1,3,67,33,7,3.0,2.0,95,0,5,3,5,4,3,2,1,1
2,5,71,35,11,6.0,1.0,105,1,9,5,9,6,2,1,1,2
3,10,71,35,11,9.0,1.0,95,1,9,5,9,6,0,0,0,2
4,13,62,30,2,12.0,1.0,105,2,0,0,0,1,-12,-7,-1,1
5,16,66,32,6,15.0,2.0,95,2,4,2,4,3,4,2,1,2
6,18,69,34,9,18.0,1.0,105,3,7,4,7,5,2,1,1,3
7,21,69,34,9,21.0,1.0,95,3,7,4,7,5,-2,-1,0,3
8,24,64,31,4,24.0,1.0,105,4,2,1,2,2,2,1,-1,2
9,27,67,33,7,27.0,2.0,95,4,5,3,5,4,3,2,1,3
10,29,71,35,11,30.0,1.0,105,5,9,5,9,6,2,1,1,4
11,34,71,35,11,33.0,1.0,95,5,9,5,9,6,0,0,0,4
12,37,62,30,2,36.0,1.0,105,6,0,0,0,1,-12,-7,-1,3
13,40,69,34,9,39.0,1.0,95,6,7,4,7,5,7,4,1,4
14,43,69,34,9,42.0,1.0,105,7,7,4,7,5,-2,-1,0,4
15,46,64,31,4,45.0,3.0,95,7,2,1,2,2,2,1,-1,3
16,47,64,31,4,48.0,1.0,105,8,2,1,2,2,0,0,0,3
17,50,67,33,7,51.0,2.0,95,8,5,3,5,4,3,2,1,4
18,52,71,35,11,54.0,1.0,105,9,9,5,9,6,2,1,1,5
19,57,71,35,11,57.0,1.0,95,9,9,5,9,6,0,0,0,5
20,60,62,30,2,60.0,1.0,105,10,0,0,0,1,-12,-7,-1,4
21,63,66,32,6,63.0,2.0,95,10,4,2,4,3,4,2,1,5
22,65,69,34,9,66.0,1.0,105,11,7,4,7,5,2,1,1,6
23,68,69,34,9,69.0,1.0,95,11,7,4,7,5,-2,-1,0,6
24,71,64,31,4,72.0,1.0,105,12,2,1,2,2,2,1,-1,5
25,74,67,33,7,75.0,2.0,95,12,5,3,5,4,3,2,1,6
26,76,71,35,11,78.0,1.0,105,13,9,5,9,6,2,1,1,7
27,81,71,35,11,81.0,1.0,95,13,9,5,9,6,0,0,0,7
28,84,62,30,2,84.0,1.0,105,14,0,0,0,1,-12,-7,-1,6
29,87,69,34,9,87.0,1.0,95,14,7,4,7,5,7,4,1,7
30,90,69,34,9,90.0,1.0,105,15,7,4,7,5,-2,-1,0,7
31,93,64,31,4,93.0,3.0,95,15,2,1,2,2,2,1,-1,6
32,94,79,40,7,96.0,1.0,105,16,17,10,5,4,15,9,1,7
33,99,78,39,6,99.0,1.0,95,16,16,9,4,3,-1,-1,-1,6
34,102,76,38,4,102.0,1.0,105,17,14,8,2,2,2,1,-1,5
35,105,71,35,11,105.0,1.0,95,17,9,5,9,6,0,0,-1,4
36,108,79,40,7,108.0,1.0,105,18,17,10,5,4,8,5,1,5
37,113,78,39,6,111.0,1.0,95,18,16,9,4,3,-1,-1,-1,4
38,116,81,41,9,114.0,1.0,105,19,19,11,7,5,3,2,1,5
39,119,74,37,2,117.0,2.0,95,19,12,7,0,1,0,0,-1,4
40,121,79,40,7,120.0,1.0,105,20,17,10,5,4,1,1,1,5
41,126,78,39,6,123.0,1.0,95,20,16,9,4,3,-1,-1,-1,4
42,129,76,38,4,126.0,1.0,105,21,14,8,2,2,2,1,-1,3
43,132,71,35,11,129.0,1.0,95,21,9,5,9,6,0,0,-1,2
44,135,74,37,2,132.0,1.0,105,22,12,7,0,1,3,2,1,3
45,138,69,34,9,135.0,1.0,95,22,7,4,7,5,-2,-1,-1,2
46,141,64,31,4,138.0,1.0,105,23,2,1,2,2,2,1,-1,1
47,146,64,31,4,141.0,1.0,95,23,2,1,2,2,0,0,0,1
48,151,79,40,7,144.0,1.0,105,24,17,10,5,4,15,9,1,2
49,156,78,39,6,147.0,1.0,95,24,16,9,4,3,-1,-1,-1,1
50,159,76,38,4,150.0,1.0,105,25,14,8,2,2,2,1,-1,0
51,162,71,35,11,153.0,1.0,95,25,9,5,9,6,0,0,-1,-1
52,165,79,40,7,156.0,1.0,105,26,17,10,5,4,8,5,1,0
53,170,78,39,6,159.0,1.0,95,26,16,9,4,3,-1,-1,-1,-1
54,173,81,41,9,162.0,1.0,105,27,19,11,7,5,3,2,1,0
55,176,74,37,2,165.0,2.0,95,27,12,7,0,1,0,0,-1,-1
56,178,79,40,7,168.0,1.0,105,28,17,10,5,4,1,1,1,0
57,183,78,39,6,171.0,1.0,95,28,16,9,4,3,-1,-1,-1,-1
58,186,76,38,4,174.0,1.0,105,29,14,8,2,2,2,1,-1,-2
59,189,71,35,11,177.0,1.0,95,29,9,5,9,6,0,0,-1,-3
60,192,74,37,2,180.0,1.0,105,30,12,7,0,1,3,2,1,-2
61,195,69,34,9,183.0,1.0,95,30,7,4,7,5,-2,-1,-1,-3
62,198,64,31,4,186.0,1.0,105,31,2,1,2,2,2,1,-1,-4
63,203,64,31,4,189.0,1.0,95,31,2,1,2,2,0,0,0,-4
64,208,76,38,4,192.0,1.0,105,32,14,8,2,2,12,7,1,-3
65,211,78,39,6,195.0,2.0,95,32,16,9,4,3,2,1,1,-2
66,213,81,41,9,198.0,2.0,105,33,19,11,7,5,2,1,1,-1
67,215,79,40,7,201.0,1.0,95,33,17,10,5,4,-2,-1,-1,-2
68,218,71,35,11,204.0,2.0,105,34,9,5,9,6,-5,-3,-1,-3
69,220,78,39,6,207.0,2.0,95,34,16,9,4,3,2,1,1,-2
70,222,81,41,9,210.0,2.0,105,35,19,11,7,5,2,1,1,-1
71,224,83,42,11,213.0,1.0,95,35,21,12,9,6,2,1,1,0
72,227,76,38,4,216.0,1.0,105,36,14,8,2,2,-3,-2,-1,-1
73,230,78,39,6,219.0,2.0,95,36,16,9,4,3,2,1,1,0
74,232,81,41,9,222.0,2.0,105,37,19,11,7,5,2,1,1,1
75,234,79,40,7,225.0,2.0,95,37,17,10,5,4,-2,-1,-1,0
76,236,76,38,4,228.0,1.0,105,38,14,8,2,2,-2,-1,-1,-1
77,239,78,39,6,231.0,1.0,95,38,16,9,4,3,2,1,1,0
78,242,83,42,11,234.0,1.0,105,39,21,12,9,6,2,1,1,1
79,245,78,39,6,237.0,1.0,95,39,16,9,4,3,-1,-1,-1,0
80,248,76,38,4,240.0,1.0,105,40,14,8,2,2,2,1,-1,-1
81,251,78,39,6,243.0,2.0,95,40,16,9,4,3,2,1,1,0
82,253,81,41,9,246.0,2.0,105,41,19,11,7,5,2,1,1,1
83,255,79,40,7,249.0,1.0,95,41,17,10,5,4,-2,-1,-1,0
84,258,71,35,11,252.0,2.0,105,42,9,5,9,6,-5,-3,-1,-1
85,260,78,39,6,255.0,2.0,95,42,16,9,4,3,2,1,1,0
86,262,81,41,9,258.0,2.0,105,43,19,11,7,5,2,1,1,1
87,264,83,42,11,261.0,1.0,95,43,21,12,9,6,2,1,1,2
88,267,76,38,4,264.0,1.0,105,44,14,8,2,2,-3,-2,-1,1
89,270,78,39,6,267.0,2.0,95,44,16,9,4,3,2,1,1,2
90,272,81,41,9,270.0,2.0,105,45,19,11,7,5,2,1,1,3
91,274,79,40,7,273.0,2.0,95,45,17,10,5,4,-2,-1,-1,2
92,276,76,38,4,276.0,1.0,105,46,14,8,2,2,-2,-1,-1,1
93,279,78,39,6,279.0,1.0,95,46,16,9,4,3,2,1,1,2
94,282,83,42,11,282.0,1.0,105,47,21,12,9,6,2,1,1,3
95,285,76,38,4,285.0,3.0,95,47,14,8,2,2,-3,-2,-1,2
