,index,midi_note_num,diatonic_note_num,chromatic_pitch_class,onset,duration,velocity,bar_count,relative_chromatic_pitch,relative_diatonic_pitch,chromatic_scale_degree,diatonic_scale_degree,chromatic_interval,diatonic_interval,parsons_code,parsons_cumsum
0,0,62,30,2,0.0,1.0,105,0,0,0,0,1,0,0,0,0
1,3,66,32,6,3.0,1.0,95,0,4,2,4,3,0,0,1,1
2,6,69,34,9,6.0,1.0,105,1,7,4,7,5,3,2,1,2
3,9,66,32,6,9.0,2.0,95,1,4,2,4,3,2,1,-1,1
4,11,62,30,2,12.0,1.0,105,2,0,0,0,1,-2,-1,-1,0
5,14,66,32,6,15.0,1.0,95,2,4,2,4,3,0,0,1,1
6,17,69,34,9,18.0,1.0,105,3,7,4,7,5,3,2,1,2
7,20,64,31,4,21.0,1.0,95,3,2,1,2,2,2,1,-1,1
8,23,62,30,2,24.0,1.0,105,4,0,0,0,1,-2,-1,-1,0
9,26,66,32,6,27.0,1.0,95,4,4,2,4,3,0,0,1,1
10,29,69,34,9,30.0,1.0,105,5,7,4,7,5,3,2,1,2
11,32,74,37,2,33.0,2.0,95,5,12,7,0,1,5,3,1,3
12,34,73,36,1,36.0,1.0,105,6,11,6,11,7,-1,-1,-1,2
13,37,71,35,11,39.0,1.0,95,6,9,5,9,6,2,1,-1,1
14,40,69,34,9,42.0,1.0,105,7,7,4,7,5,3,2,-1,0
15,43,64,31,4,45.0,1.0,95,7,2,1,2,2,0,0,-1,-1
16,46,62,30,2,48.0,1.0,105,8,0,0,0,1,-2,-1,-1,-2
17,49,66,32,6,51.0,1.0,95,8,4,2,4,3,0,0,1,-1
18,52,69,34,9,54.0,1.0,105,9,7,4,7,5,3,2,1,0
19,55,66,32,6,57.0,2.0,95,9,4,2,4,3,2,1,-1,-1
20,57,62,30,2,60.0,1.0,105,10,0,0,0,1,-2,-1,-1,-2
21,60,66,32,6,63.0,1.0,95,10,4,2,4,3,0,0,1,-1
22,63,69,34,9,66.0,1.0,105,11,7,4,7,5,3,2,1,0
23,66,64,31,4,69.0,1.0,95,11,2,1,2,2,2,1,-1,-1
24,69,62,30,2,72.0,1.0,105,12,0,0,0,1,-2,-1,-1,-2
25,72,66,32,6,75.0,1.0,95,12,4,2,4,3,0,0,1,-1
26,75,69,34,9,78.0,1.0,105,13,7,4,7,5,3,2,1,0
27,78,74,37,2,81.0,2.0,95,13,12,7,0,1,5,3,1,1
28,80,73,36,1,84.0,1.0,105,14,11,6,11,7,-1,-1,-1,0
29,83,71,35,11,87.0,1.0,95,14,9,5,9,6,2,1,-1,-1
30,86,69,34,9,90.0,1.0,105,15,7,4,7,5,3,2,-1,-2
31,89,64,31,4,93.0,2.0,95,15,2,1,2,2,0,0,-1,-3
32,91,76,38,4,96.0,1.0,105,16,14,8,2,2,-2,-1,1,-2
33,94,69,34,9,99.0,1.0,95,16,7,4,7,5,0,0,-1,-3
34,97,76,38,4,102.0,1.0,105,17,14,8,2,2,7,4,1,-2
35,100,69,34,9,105.0,2.0,95,17,7,4,7,5,0,0,-1,-3
36,102,76,38,4,108.0,1.0,105,18,14,8,2,2,-2,-1,1,-2
37,105,69,34,9,111.0,1.0,95,18,7,4,7,5,0,0,-1,-3
38,108,78,39,6,114.0,1.0,105,19,16,9,4,3,2,1,1,-2
39,111,71,35,11,117.0,2.0,95,19,9,5,9,6,0,0,-1,-3
40,113,76,38,4,120.0,1.0,105,20,14,8,2,2,-2,-1,1,-2
41,116,78,39,6,123.0,1.0,95,20,16,9,4,3,9,5,1,-1
42,119,76,38,4,126.0,1.0,105,21,14,8,2,2,5,3,-1,-2
43,122,81,41,9,129.0,1.0,95,21,19,11,7,5,12,7,1,-1
44,125,76,38,4,132.0,1.0,105,22,14,8,2,2,-2,-1,-1,-2
45,128,71,35,11,135.0,1.0,95,22,9,5,9,6,2,1,-1,-3
46,131,69,34,9,138.0,1.0,105,23,7,4,7,5,3,2,-1,-4
47,134,64,31,4,141.0,2.0,95,23,2,1,2,2,0,0,-1,-5
48,136,76,38,4,144.0,1.0,105,24,14,8,2,2,-2,-1,1,-4
49,139,69,34,9,147.0,1.0,95,24,7,4,7,5,0,0,-1,-5
50,142,76,38,4,150.0,1.0,105,25,14,8,2,2,7,4,1,-4
51,145,69,34,9,153.0,2.0,95,25,7,4,7,5,0,0,-1,-5
52,147,76,38,4,156.0,1.0,105,26,14,8,2,2,-2,-1,1,-4
53,150,69,34,9,159.0,1.0,95,26,7,4,7,5,0,0,-1,-5
54,153,78,39,6,162.0,1.0,105,27,16,9,4,3,2,1,1,-4
55,156,71,35,11,165.0,2.0,95,27,9,5,9,6,0,0,-1,-5
56,158,76,38,4,168.0,1.0,105,28,14,8,2,2,-2,-1,1,-4
57,161,78,39,6,171.0,1.0,95,28,16,9,4,3,9,5,1,-3
58,164,76,38,4,174.0,1.0,105,29,14,8,2,2,5,3,-1,-4
59,167,81,41,9,177.0,1.0,95,29,19,11,7,5,12,7,1,-3
60,170,76,38,4,180.0,1.0,105,30,14,8,2,2,-2,-1,-1,-4
61,173,71,35,11,183.0,1.0,95,30,9,5,9,6,2,1,-1,-5
62,176,69,34,9,186.0,1.0,105,31,7,4,7,5,3,2,-1,-6
63,179,64,31,4,189.0,1.0,95,31,2,1,2,2,0,0,-1,-7
64,182,74,37,2,192.0,1.0,105,32,12,7,0,1,1,1,1,-6
65,185,66,32,6,195.0,1.0,95,32,4,2,4,3,0,0,-1,-7
66,188,69,34,9,198.0,1.0,105,33,7,4,7,5,3,2,1,-6
67,191,66,32,6,201.0,1.0,95,33,4,2,4,3,2,1,-1,-7
68,194,74,37,2,204.0,1.0,105,34,12,7,0,1,1,1,1,-6
69,197,66,32,6,207.0,1.0,95,34,4,2,4,3,0,0,-1,-7
70,200,69,34,9,210.0,1.0,105,35,7,4,7,5,3,2,1,-6
71,203,64,31,4,213.0,2.0,95,35,2,1,2,2,2,1,-1,-7
72,205,74,37,2,216.0,1.0,105,36,12,7,0,1,1,1,1,-6
73,208,66,32,6,219.0,1.0,95,36,4,2,4,3,0,0,-1,-7
74,211,69,34,9,222.0,1.0,105,37,7,4,7,5,3,2,1,-6
75,214,74,37,2,225.0,2.0,95,37,12,7,0,1,5,3,1,-5
76,216,73,36,1,228.0,1.0,105,38,11,6,11,7,-1,-1,-1,-6
77,219,71,35,11,231.0,1.0,95,38,9,5,9,6,2,1,-1,-7
78,222,69,34,9,234.0,1.0,105,39,7,4,7,5,3,2,-1,-8
79,225,64,31,4,237.0,1.0,95,39,2,1,2,2,0,0,-1,-9
80,228,74,37,2,240.0,1.0,105,40,12,7,0,1,1,1,1,-8
81,231,66,32,6,243.0,1.0,95,40,4,2,4,3,0,0,-1,-9
82,234,69,34,9,246.0,1.0,105,41,7,4,7,5,3,2,1,-8
83,237,66,32,6,249.0,1.0,95,41,4,2,4,3,2,1,-1,-9
84,240,74,37,2,252.0,1.0,105,42,12,7,0,1,1,1,1,-8
85,243,66,32,6,255.0,1.0,95,42,4,2,4,3,0,0,-1,-9
86,246,69,34,9,258.0,1.0,105,43,7,4,7,5,3,2,1,-8
87,249,64,31,4,261.0,2.0,95,43,2,1,2,2,2,1,-1,-9
88,251,74,37,2,264.0,1.0,105,44,12,7,0,1,1,1,1,-8
89,254,66,32,6,267.0,1.0,95,44,4,2,4,3,0,0,-1,-9
90,257,69,34,9,270.0,1.0,105,45,7,4,7,5,3,2,1,-8
91,260,74,37,2,273.0,2.0,95,45,12,7,0,1,5,3,1,-7
92,262,73,36,1,276.0,1.0,105,46,11,6,11,7,-1,-1,-1,-8
93,265,71,35,11,279.0,1.0,95,46,9,5,9,6,2,1,-1,-9
94,268,69,34,9,282.0,1.0,105,47,7,4,7,5,3,2,-1,-10
95,271,64,31,4,285.0,1.0,95,47,2,1,2,2,0,0,-1,-11
