,index,midi_note_num,diatonic_note_num,chromatic_pitch_class,onset,duration,velocity,bar_count,relative_chromatic_pitch,relative_diatonic_pitch,chromatic_scale_degree,diatonic_scale_degree,chromatic_interval,diatonic_interval,parsons_code,parsons_cumsum
0,0,62,30,2,0.0,1.0,105,0,0,0,0,1,0,0,0,0
1,3,66,32,6,3.0,1.0,95,0,4,2,4,3,0,0,1,1
2,6,69,34,9,6.0,1.0,105,1,7,4,7,5,3,2,1,2
3,9,66,32,6,9.0,2.0,95,1,4,2,4,3,0,0,-1,1
4,11,62,30,2,12.0,1.0,105,2,0,0,0,1,-2,-1,-1,0
5,14,66,32,6,15.0,1.0,95,2,4,2,4,3,0,0,1,1
6,17,69,34,9,18.0,1.0,105,3,7,4,7,5,3,2,1,2
7,20,64,31,4,21.0,2.0,95,3,2,1,2,2,0,0,-1,1
8,22,62,30,2,24.0,1.0,105,4,0,0,0,1,-4,-2,-1,0
9,25,66,32,6,27.0,1.0,95,4,4,2,4,3,0,0,1,1
10,28,69,34,9,30.0,1.0,105,5,7,4,7,5,3,2,1,2
11,31,74,37,2,33.0,2.0,95,5,12,7,0,1,5,3,1,3
12,33,71,35,11,36.0,1.0,105,6,9,5,9,6,-3,-2,-1,2
13,36,71,35,11,39.0,1.0,95,6,9,5,9,6,0,0,0,2
14,39,69,34,9,42.0,1.0,105,7,7,4,7,5,3,2,-1,1
15,42,64,31,4,45.0,2.0,95,7,2,1,2,2,0,0,-1,0
16,44,62,30,2,48.0,1.0,105,8,0,0,0,1,-4,-2,-1,-1
17,47,66,32,6,51.0,1.0,95,8,4,2,4,3,0,0,1,0
18,50,69,34,9,54.0,1.0,105,9,7,4,7,5,3,2,1,1
19,53,66,32,6,57.0,2.0,95,9,4,2,4,3,0,0,-1,0
20,55,62,30,2,60.0,1.0,105,10,0,0,0,1,-2,-1,-1,-1
21,58,66,32,6,63.0,1.0,95,10,4,2,4,3,0,0,1,0
22,61,69,34,9,66.0,1.0,105,11,7,4,7,5,3,2,1,1
23,64,64,31,4,69.0,2.0,95,11,2,1,2,2,0,0,-1,0
24,66,62,30,2,72.0,1.0,105,12,0,0,0,1,-4,-2,-1,-1
25,69,66,32,6,75.0,1.0,95,12,4,2,4,3,0,0,1,0
26,72,69,34,9,78.0,1.0,105,13,7,4,7,5,3,2,1,1
27,75,74,37,2,81.0,2.0,95,13,12,7,0,1,5,3,1,2
28,77,71,35,11,84.0,1.0,105,14,9,5,9,6,-3,-2,-1,1
29,80,71,35,11,87.0,1.0,95,14,9,5,9,6,0,0,0,1
30,83,69,34,9,90.0,1.0,105,15,7,4,7,5,3,2,-1,0
31,86,64,31,4,93.0,2.0,95,15,2,1,2,2,0,0,-1,-1
32,88,76,38,4,96.0,1.0,105,16,14,8,2,2,-2,-1,1,0
33,91,69,34,9,99.0,1.0,95,16,7,4,7,5,0,0,-1,-1
34,94,76,38,4,102.0,1.0,105,17,14,8,2,2,7,4,1,0
35,97,69,34,9,105.0,2.0,95,17,7,4,7,5,0,0,-1,-1
36,99,76,38,4,108.0,1.0,105,18,14,8,2,2,-2,-1,1,0
37,102,69,34,9,111.0,1.0,95,18,7,4,7,5,0,0,-1,-1
38,105,78,39,6,114.0,1.0,105,19,16,9,4,3,2,1,1,0
39,108,71,35,11,117.0,2.0,95,19,9,5,9,6,0,0,-1,-1
40,110,76,38,4,120.0,1.0,105,20,14,8,2,2,-2,-1,1,0
41,113,78,39,6,123.0,1.0,95,20,16,9,4,3,9,5,1,1
42,116,76,38,4,126.0,1.0,105,21,14,8,2,2,5,3,-1,0
43,119,81,41,9,129.0,1.0,95,21,19,11,7,5,12,7,1,1
44,122,76,38,4,132.0,1.0,105,22,14,8,2,2,-2,-1,-1,0
45,125,71,35,11,135.0,1.0,95,22,9,5,9,6,2,1,-1,-1
46,128,69,34,9,138.0,1.0,105,23,7,4,7,5,3,2,-1,-2
47,131,64,31,4,141.0,2.0,95,23,2,1,2,2,0,0,-1,-3
48,133,76,38,4,144.0,1.0,105,24,14,8,2,2,-2,-1,1,-2
49,136,69,34,9,147.0,1.0,95,24,7,4,7,5,0,0,-1,-3
50,139,76,38,4,150.0,1.0,105,25,14,8,2,2,7,4,1,-2
51,142,69,34,9,153.0,2.0,95,25,7,4,7,5,0,0,-1,-3
52,144,76,38,4,156.0,1.0,105,26,14,8,2,2,-2,-1,1,-2
53,147,69,34,9,159.0,1.0,95,26,7,4,7,5,0,0,-1,-3
54,150,78,39,6,162.0,1.0,105,27,16,9,4,3,2,1,1,-2
55,153,71,35,11,165.0,2.0,95,27,9,5,9,6,0,0,-1,-3
56,155,76,38,4,168.0,1.0,105,28,14,8,2,2,-2,-1,1,-2
57,158,78,39,6,171.0,1.0,95,28,16,9,4,3,9,5,1,-1
58,161,76,38,4,174.0,1.0,105,29,14,8,2,2,5,3,-1,-2
59,164,81,41,9,177.0,1.0,95,29,19,11,7,5,12,7,1,-1
60,167,76,38,4,180.0,1.0,105,30,14,8,2,2,-2,-1,-1,-2
61,170,71,35,11,183.0,1.0,95,30,9,5,9,6,2,1,-1,-3
62,173,69,34,9,186.0,1.0,105,31,7,4,7,5,3,2,-1,-4
63,176,64,31,4,189.0,2.0,95,31,2,1,2,2,0,0,-1,-5
64,178,74,37,2,192.0,1.0,105,32,12,7,0,1,0,0,1,-4
65,181,66,32,6,195.0,1.0,95,32,4,2,4,3,0,0,-1,-5
66,184,69,34,9,198.0,1.0,105,33,7,4,7,5,3,2,1,-4
67,187,66,32,6,201.0,2.0,95,33,4,2,4,3,0,0,-1,-5
68,189,74,37,2,204.0,1.0,105,34,12,7,0,1,0,0,1,-4
69,192,66,32,6,207.0,1.0,95,34,4,2,4,3,0,0,-1,-5
70,195,69,34,9,210.0,1.0,105,35,7,4,7,5,3,2,1,-4
71,198,64,31,4,213.0,2.0,95,35,2,1,2,2,0,0,-1,-5
72,200,74,37,2,216.0,1.0,105,36,12,7,0,1,0,0,1,-4
73,203,66,32,6,219.0,1.0,95,36,4,2,4,3,0,0,-1,-5
74,206,69,34,9,222.0,1.0,105,37,7,4,7,5,3,2,1,-4
75,209,74,37,2,225.0,2.0,95,37,12,7,0,1,5,3,1,-3
76,211,71,35,11,228.0,1.0,105,38,9,5,9,6,-3,-2,-1,-4
77,214,71,35,11,231.0,1.0,95,38,9,5,9,6,0,0,0,-4
78,217,69,34,9,234.0,1.0,105,39,7,4,7,5,3,2,-1,-5
79,220,64,31,4,237.0,2.0,95,39,2,1,2,2,0,0,-1,-6
80,222,74,37,2,240.0,1.0,105,40,12,7,0,1,0,0,1,-5
81,225,66,32,6,243.0,1.0,95,40,4,2,4,3,0,0,-1,-6
82,228,69,34,9,246.0,1.0,105,41,7,4,7,5,3,2,1,-5
83,231,66,32,6,249.0,2.0,95,41,4,2,4,3,0,0,-1,-6
84,233,74,37,2,252.0,1.0,105,42,12,7,0,1,0,0,1,-5
85,236,66,32,6,255.0,1.0,95,42,4,2,4,3,0,0,-1,-6
86,239,69,34,9,258.0,1.0,105,43,7,4,7,5,3,2,1,-5
87,242,64,31,4,261.0,2.0,95,43,2,1,2,2,0,0,-1,-6
88,244,74,37,2,264.0,1.0,105,44,12,7,0,1,0,0,1,-5
89,247,66,32,6,267.0,1.0,95,44,4,2,4,3,0,0,-1,-6
90,250,69,34,9,270.0,1.0,105,45,7,4,7,5,3,2,1,-5
91,253,74,37,2,273.0,2.0,95,45,12,7,0,1,5,3,1,-4
92,255,71,35,11,276.0,1.0,105,46,9,5,9,6,-3,-2,-1,-5
93,258,71,35,11,279.0,1.0,95,46,9,5,9,6,0,0,0,-5
94,261,69,34,9,282.0,1.0,105,47,7,4,7,5,3,2,-1,-6
95,264,64,31,4,285.0,1.0,95,47,2,1,2,2,0,0,-1,-7
