,index,midi_note_num,diatonic_note_num,chromatic_pitch_class,onset,duration,velocity,bar_count,relative_chromatic_pitch,relative_diatonic_pitch,chromatic_scale_degree,diatonic_scale_degree,chromatic_interval,diatonic_interval,parsons_code,parsons_cumsum
0,0,62,30,2,0.0,2.0,105,0,0,0,0,1,0,0,0,0
1,2,66,32,6,3.0,1.0,95,0,4,2,4,3,0,0,1,1
2,5,69,34,9,6.0,1.0,105,1,7,4,7,5,3,2,1,2
3,8,64,31,4,9.0,1.0,95,1,2,1,2,2,0,0,-1,1
4,11,62,30,2,12.0,2.0,105,2,0,0,0,1,-2,-1,-1,0
5,13,66,32,6,15.0,1.0,95,2,4,2,4,3,0,0,1,1
6,16,69,34,9,18.0,1.0,105,3,7,4,7,5,3,2,1,2
7,19,64,31,4,21.0,1.0,95,3,2,1,2,2,2,1,-1,1
8,22,62,30,2,24.0,2.0,105,4,0,0,0,1,-2,-1,-1,0
9,24,66,32,6,27.0,1.0,95,4,4,2,4,3,0,0,1,1
10,27,69,34,9,30.0,1.0,105,5,7,4,7,5,3,2,1,2
11,30,74,37,2,33.0,2.0,95,5,12,7,0,1,5,3,1,3
12,32,73,36,1,36.0,1.0,105,6,11,6,11,7,-1,-1,-1,2
13,35,71,35,11,39.0,1.0,95,6,9,5,9,6,2,1,-1,1
14,38,69,34,9,42.0,1.0,105,7,7,4,7,5,3,2,-1,0
15,41,64,31,4,45.0,1.0,95,7,2,1,2,2,0,0,-1,-1
16,44,62,30,2,48.0,2.0,105,8,0,0,0,1,-2,-1,-1,-2
17,46,66,32,6,51.0,1.0,95,8,4,2,4,3,0,0,1,-1
18,49,69,34,9,54.0,1.0,105,9,7,4,7,5,3,2,1,0
19,52,64,31,4,57.0,1.0,95,9,2,1,2,2,0,0,-1,-1
20,55,62,30,2,60.0,2.0,105,10,0,0,0,1,-2,-1,-1,-2
21,57,66,32,6,63.0,1.0,95,10,4,2,4,3,0,0,1,-1
22,60,69,34,9,66.0,1.0,105,11,7,4,7,5,3,2,1,0
23,63,64,31,4,69.0,1.0,95,11,2,1,2,2,2,1,-1,-1
24,66,62,30,2,72.0,2.0,105,12,0,0,0,1,-2,-1,-1,-2
25,68,66,32,6,75.0,1.0,95,12,4,2,4,3,0,0,1,-1
26,71,69,34,9,78.0,1.0,105,13,7,4,7,5,3,2,1,0
27,74,74,37,2,81.0,2.0,95,13,12,7,0,1,5,3,1,1
28,76,73,36,1,84.0,1.0,105,14,11,6,11,7,-1,-1,-1,0
29,79,71,35,11,87.0,1.0,95,14,9,5,9,6,2,1,-1,-1
30,82,69,34,9,90.0,1.0,105,15,7,4,7,5,3,2,-1,-2
31,85,64,31,4,93.0,2.0,95,15,2,1,2,2,0,0,-1,-3
32,87,76,38,4,96.0,1.0,105,16,14,8,2,2,0,0,1,-2
33,90,69,34,9,99.0,1.0,95,16,7,4,7,5,0,0,-1,-3
34,93,76,38,4,102.0,1.0,105,17,14,8,2,2,2,1,1,-2
35,96,69,34,9,105.0,2.0,95,17,7,4,7,5,0,0,-1,-3
36,98,76,38,4,108.0,1.0,105,18,14,8,2,2,-2,-1,1,-2
37,101,69,34,9,111.0,1.0,95,18,7,4,7,5,0,0,-1,-3
38,104,78,39,6,114.0,1.0,105,19,16,9,4,3,2,1,1,-2
39,107,71,35,11,117.0,1.0,95,19,9,5,9,6,0,0,-1,-3
40,110,76,38,4,120.0,1.0,105,20,14,8,2,2,2,1,1,-2
41,113,73,36,1,123.0,2.0,95,20,11,6,11,7,2,1,-1,-3
42,115,69,34,9,126.0,1.0,105,21,7,4,7,5,-2,-1,-1,-4
43,118,81,41,9,129.0,3.0,95,21,19,11,7,5,5,3,1,-3
44,119,78,39,6,132.0,1.0,105,22,16,9,4,3,-3,-2,-1,-4
45,122,76,38,4,135.0,1.0,95,22,14,8,2,2,3,2,-1,-5
46,125,71,35,11,138.0,1.0,105,23,9,5,9,6,0,0,-1,-6
47,128,69,34,9,141.0,1.0,95,23,7,4,7,5,1,1,-1,-7
48,131,76,38,4,144.0,1.0,105,24,14,8,2,2,2,1,1,-6
49,134,69,34,9,147.0,1.0,95,24,7,4,7,5,0,0,-1,-7
50,137,76,38,4,150.0,1.0,105,25,14,8,2,2,2,1,1,-6
51,140,69,34,9,153.0,2.0,95,25,7,4,7,5,0,0,-1,-7
52,142,76,38,4,156.0,1.0,105,26,14,8,2,2,-2,-1,1,-6
53,145,69,34,9,159.0,1.0,95,26,7,4,7,5,0,0,-1,-7
54,148,78,39,6,162.0,1.0,105,27,16,9,4,3,2,1,1,-6
55,151,71,35,11,165.0,1.0,95,27,9,5,9,6,0,0,-1,-7
56,154,76,38,4,168.0,1.0,105,28,14,8,2,2,2,1,1,-6
57,157,73,36,1,171.0,2.0,95,28,11,6,11,7,2,1,-1,-7
58,159,69,34,9,174.0,1.0,105,29,7,4,7,5,-2,-1,-1,-8
59,162,81,41,9,177.0,3.0,95,29,19,11,7,5,5,3,1,-7
60,163,78,39,6,180.0,1.0,105,30,16,9,4,3,-3,-2,-1,-8
61,166,76,38,4,183.0,1.0,95,30,14,8,2,2,3,2,-1,-9
62,169,71,35,11,186.0,1.0,105,31,9,5,9,6,0,0,-1,-10
63,172,69,34,9,189.0,1.0,95,31,7,4,7,5,1,1,-1,-11
64,175,74,37,2,192.0,3.0,105,32,12,7,0,1,1,1,1,-10
65,176,66,32,6,195.0,3.0,95,32,4,2,4,3,-8,-5,-1,-11
66,177,69,34,9,198.0,1.0,105,33,7,4,7,5,3,2,1,-10
67,180,66,32,6,201.0,1.0,95,33,4,2,4,3,2,1,-1,-11
68,183,74,37,2,204.0,2.0,105,34,12,7,0,1,1,1,1,-10
69,185,66,32,6,207.0,1.0,95,34,4,2,4,3,0,0,-1,-11
70,188,69,34,9,210.0,1.0,105,35,7,4,7,5,3,2,1,-10
71,191,64,31,4,213.0,2.0,95,35,2,1,2,2,2,1,-1,-11
72,194,74,37,2,216.0,2.0,105,36,12,7,0,1,1,1,1,-10
73,196,66,32,6,219.0,1.0,95,36,4,2,4,3,0,0,-1,-11
74,199,69,34,9,222.0,1.0,105,37,7,4,7,5,3,2,1,-10
75,202,74,37,2,225.0,2.0,95,37,12,7,0,1,5,3,1,-9
76,204,73,36,1,228.0,1.0,105,38,11,6,11,7,-1,-1,-1,-10
77,207,71,35,11,231.0,1.0,95,38,9,5,9,6,2,1,-1,-11
78,210,69,34,9,234.0,1.0,105,39,7,4,7,5,3,2,-1,-12
79,213,64,31,4,237.0,3.0,95,39,2,1,2,2,0,0,-1,-13
