,index,midi_note_num,diatonic_note_num,chromatic_pitch_class,onset,duration,velocity,bar_count,relative_chromatic_pitch,relative_diatonic_pitch,chromatic_scale_degree,diatonic_scale_degree,chromatic_interval,diatonic_interval,parsons_code,parsons_cumsum
0,0,67,33,7,0.0,1.0,105,0,0,0,0,1,0,0,0,0
1,4,69,34,9,4.0,1.0,95,0,2,1,2,2,-3,-2,1,1
2,7,71,35,11,8.0,1.0,105,1,4,2,4,3,7,4,1,2
3,11,72,36,0,12.0,1.0,95,1,5,3,5,4,-4,-2,1,3
4,14,74,37,2,16.0,1.0,105,2,7,4,7,5,5,3,1,4
5,18,81,41,9,20.0,1.0,95,2,14,8,2,2,2,1,1,5
6,22,76,38,4,24.0,1.0,105,3,9,5,9,6,-3,-2,-1,4
7,26,76,38,4,28.0,1.0,95,3,9,5,9,6,7,4,0,4
8,30,67,33,7,32.0,1.0,105,4,0,0,0,1,-4,-2,-1,3
9,34,69,34,9,36.0,1.0,95,4,2,1,2,2,-3,-2,1,4
10,37,71,35,11,40.0,1.0,105,5,4,2,4,3,7,4,1,5
11,41,72,36,0,44.0,1.0,95,5,5,3,5,4,-4,-2,1,6
12,45,74,37,2,48.0,1.0,105,6,7,4,7,5,1,1,1,7
13,49,81,41,9,52.0,2.0,95,6,14,8,2,2,2,1,1,8
14,52,69,34,9,56.0,1.0,105,7,2,1,2,2,-3,-2,-1,7
15,56,72,36,0,60.0,1.0,95,7,5,3,5,4,3,2,1,8
16,61,67,33,7,64.0,1.0,105,8,0,0,0,1,-2,-1,-1,7
17,65,69,34,9,68.0,1.0,95,8,2,1,2,2,-3,-2,1,8
18,68,71,35,11,72.0,1.0,105,9,4,2,4,3,7,4,1,9
19,72,72,36,0,76.0,1.0,95,9,5,3,5,4,-4,-2,1,10
20,75,74,37,2,80.0,1.0,105,10,7,4,7,5,5,3,1,11
21,79,81,41,9,84.0,1.0,95,10,14,8,2,2,2,1,1,12
22,83,76,38,4,88.0,1.0,105,11,9,5,9,6,-3,-2,-1,11
23,87,76,38,4,92.0,1.0,95,11,9,5,9,6,7,4,0,11
24,91,67,33,7,96.0,1.0,105,12,0,0,0,1,-4,-2,-1,10
25,95,69,34,9,100.0,1.0,95,12,2,1,2,2,-3,-2,1,11
26,98,71,35,11,104.0,1.0,105,13,4,2,4,3,7,4,1,12
27,102,72,36,0,108.0,1.0,95,13,5,3,5,4,-4,-2,1,13
28,106,74,37,2,112.0,1.0,105,14,7,4,7,5,1,1,1,14
29,110,81,41,9,116.0,2.0,95,14,14,8,2,2,2,1,1,15
30,113,69,34,9,120.0,1.0,105,15,2,1,2,2,-3,-2,-1,14
31,117,72,36,0,124.0,1.0,95,15,5,3,5,4,3,2,1,15
32,121,76,38,4,128.0,1.0,105,16,9,5,9,6,0,0,1,16
33,124,78,39,6,132.0,1.0,95,16,11,6,11,7,9,5,1,17
34,127,76,38,4,136.0,1.0,105,17,9,5,9,6,2,1,-1,16
35,131,71,35,11,140.0,1.0,95,17,4,2,4,3,-1,-1,-1,15
36,135,76,38,4,144.0,1.0,105,18,9,5,9,6,7,4,1,16
37,138,76,38,4,148.0,1.0,95,18,9,5,9,6,7,4,0,16
38,142,67,33,7,152.0,1.0,105,19,0,0,0,1,-4,-2,-1,15
39,146,69,34,9,156.0,1.0,95,19,2,1,2,2,-3,-2,1,16
40,149,76,38,4,160.0,1.0,105,20,9,5,9,6,12,7,1,17
41,152,78,39,6,164.0,1.0,95,20,11,6,11,7,9,5,1,18
42,155,76,38,4,168.0,1.0,105,21,9,5,9,6,2,1,-1,17
43,159,71,35,11,172.0,1.0,95,21,4,2,4,3,-1,-1,-1,16
44,162,74,37,2,176.0,1.0,105,22,7,4,7,5,7,4,1,17
45,166,81,41,9,180.0,2.0,95,22,14,8,2,2,2,1,1,18
46,169,69,34,9,184.0,1.0,105,23,2,1,2,2,-3,-2,-1,17
47,173,72,36,0,188.0,1.0,95,23,5,3,5,4,3,2,1,18
48,177,76,38,4,192.0,1.0,105,24,9,5,9,6,9,5,1,19
49,180,78,39,6,196.0,1.0,95,24,11,6,11,7,9,5,1,20
50,183,76,38,4,200.0,1.0,105,25,9,5,9,6,2,1,-1,19
51,187,71,35,11,204.0,1.0,95,25,4,2,4,3,-1,-1,-1,18
52,191,76,38,4,208.0,1.0,105,26,9,5,9,6,7,4,1,19
53,194,76,38,4,212.0,1.0,95,26,9,5,9,6,7,4,0,19
54,198,67,33,7,216.0,1.0,105,27,0,0,0,1,-4,-2,-1,18
55,202,69,34,9,220.0,1.0,95,27,2,1,2,2,-3,-2,1,19
56,205,76,38,4,224.0,1.0,105,28,9,5,9,6,12,7,1,20
57,208,78,39,6,228.0,1.0,95,28,11,6,11,7,9,5,1,21
58,211,76,38,4,232.0,1.0,105,29,9,5,9,6,2,1,-1,20
59,215,71,35,11,236.0,1.0,95,29,4,2,4,3,-1,-1,-1,19
60,218,74,37,2,240.0,1.0,105,30,7,4,7,5,7,4,1,20
61,222,81,41,9,244.0,2.0,95,30,14,8,2,2,2,1,1,21
62,225,69,34,9,248.0,1.0,105,31,2,1,2,2,-3,-2,-1,20
63,229,72,36,0,252.0,1.0,95,31,5,3,5,4,3,2,1,21
64,233,69,34,9,256.0,2.0,105,32,2,1,2,2,2,1,-1,20
65,235,62,30,2,260.0,1.0,95,32,-5,-3,7,5,-7,-4,-1,19
66,238,69,34,9,264.0,3.0,105,33,2,1,2,2,5,3,1,20
67,240,64,31,4,268.0,1.0,95,33,-3,-2,9,6,-3,-2,-1,19
68,244,69,34,9,272.0,1.0,105,34,2,1,2,2,2,1,1,20
69,248,62,30,2,276.0,1.0,95,34,-5,-3,7,5,-7,-4,-1,19
70,252,67,33,7,280.0,1.0,105,35,0,0,0,1,5,3,1,20
71,256,69,34,9,284.0,1.0,95,35,2,1,2,2,-3,-2,1,21
72,259,69,34,9,288.0,2.0,105,36,2,1,2,2,5,3,0,21
73,261,62,30,2,292.0,1.0,95,36,-5,-3,7,5,-7,-4,-1,20
74,264,69,34,9,296.0,3.0,105,37,2,1,2,2,5,3,1,21
75,266,64,31,4,300.0,1.0,95,37,-3,-2,9,6,-3,-2,-1,20
76,270,76,38,4,304.0,1.0,105,38,9,5,9,6,9,5,1,21
77,273,74,37,2,308.0,1.0,95,38,7,4,7,5,5,3,-1,20
78,277,76,38,4,312.0,1.0,105,39,9,5,9,6,-3,-2,1,21
79,280,69,34,9,316.0,1.0,95,39,2,1,2,2,0,0,-1,20
80,284,69,34,9,320.0,2.0,105,40,2,1,2,2,0,0,0,20
81,286,62,30,2,324.0,1.0,95,40,-5,-3,7,5,-7,-4,-1,19
82,289,69,34,9,328.0,3.0,105,41,2,1,2,2,5,3,1,20
83,291,64,31,4,332.0,1.0,95,41,-3,-2,9,6,-3,-2,-1,19
84,295,69,34,9,336.0,1.0,105,42,2,1,2,2,2,1,1,20
85,299,62,30,2,340.0,1.0,95,42,-5,-3,7,5,-7,-4,-1,19
86,303,67,33,7,344.0,1.0,105,43,0,0,0,1,5,3,1,20
87,307,69,34,9,348.0,1.0,95,43,2,1,2,2,-3,-2,1,21
88,310,69,34,9,352.0,2.0,105,44,2,1,2,2,5,3,0,21
89,312,62,30,2,356.0,1.0,95,44,-5,-3,7,5,-7,-4,-1,20
90,315,69,34,9,360.0,3.0,105,45,2,1,2,2,5,3,1,21
91,317,64,31,4,364.0,1.0,95,45,-3,-2,9,6,-3,-2,-1,20
92,321,76,38,4,368.0,1.0,105,46,9,5,9,6,9,5,1,21
93,324,74,37,2,372.0,1.0,95,46,7,4,7,5,5,3,-1,20
94,328,76,38,4,376.0,1.0,105,47,9,5,9,6,-3,-2,1,21
95,331,69,34,9,380.0,1.0,95,47,2,1,2,2,0,0,-1,20
