,index,midi_note_num,diatonic_note_num,chromatic_pitch_class,onset,duration,velocity,bar_count,relative_chromatic_pitch,relative_diatonic_pitch,chromatic_scale_degree,diatonic_scale_degree,chromatic_interval,diatonic_interval,parsons_code,parsons_cumsum
0,3,74,37,2,3.0,3.0,105,0,7,4,7,5,0,0,0,0
1,7,64,31,4,9.0,3.0,105,1,-3,-2,9,6,-3,-2,-1,-1
2,11,62,30,2,15.0,6.0,105,2,-5,-3,7,5,3,2,-1,-2
3,12,62,30,2,21.0,3.0,105,3,-5,-3,7,5,0,0,0,-2
4,16,74,37,2,27.0,3.0,105,4,7,4,7,5,3,2,1,-1
5,20,64,31,4,33.0,3.0,105,5,-3,-2,9,6,-3,-2,-1,-2
6,24,62,30,2,39.0,6.0,105,6,-5,-3,7,5,3,2,-1,-3
7,25,62,30,2,45.0,3.0,105,7,-5,-3,7,5,0,0,0,-3
8,29,69,34,9,51.0,3.0,105,8,2,1,2,2,2,1,1,-2
9,33,69,34,9,57.0,1.0,105,9,2,1,2,2,-2,-1,0,-2
10,37,62,30,2,63.0,6.0,105,10,-5,-3,7,5,0,0,-1,-3
11,38,62,30,2,69.0,3.0,105,11,-5,-3,7,5,0,0,0,-3
12,42,69,34,9,75.0,3.0,105,12,2,1,2,2,2,1,1,-2
13,46,69,34,9,81.0,1.0,105,13,2,1,2,2,-2,-1,0,-2
14,50,74,37,2,87.0,4.0,105,14,7,4,7,5,12,7,1,-1
15,53,74,37,2,93.0,4.0,105,15,7,4,7,5,-2,-1,0,-1
16,56,67,33,7,99.0,4.0,105,16,0,0,0,1,1,1,-1,-2
17,59,67,33,7,105.0,4.0,105,17,0,0,0,1,1,1,0,-2
18,62,67,33,7,111.0,3.0,105,18,0,0,0,1,1,1,0,-2
19,66,67,33,7,117.0,2.0,105,19,0,0,0,1,1,1,0,-2
20,69,67,33,7,123.0,4.0,105,20,0,0,0,1,-4,-2,0,-2
21,72,67,33,7,129.0,4.0,105,21,0,0,0,1,1,1,0,-2
22,75,64,31,4,135.0,4.0,105,22,-3,-2,9,6,2,1,-1,-3
23,79,62,30,2,141.0,4.0,105,23,-5,-3,7,5,-2,-1,-1,-4
24,82,64,31,4,147.0,3.0,105,24,-3,-2,9,6,-2,-1,1,-3
25,85,66,32,6,153.0,2.0,105,25,-1,-1,11,7,-1,-1,1,-2
26,88,71,35,11,159.0,3.0,105,26,4,2,4,3,2,1,1,-1
27,92,67,33,7,165.0,4.0,105,27,0,0,0,1,-2,-1,-1,-2
28,95,64,31,4,171.0,2.0,105,28,-3,-2,9,6,-2,-1,-1,-3
29,98,69,34,9,177.0,2.0,105,29,2,1,2,2,2,1,1,-2
30,101,67,33,7,183.0,6.0,105,30,0,0,0,1,1,1,-1,-3
31,102,67,33,7,189.0,3.0,105,31,0,0,0,1,0,0,0,-3
32,106,74,37,2,195.0,3.0,105,32,7,4,7,5,3,2,1,-2
33,110,64,31,4,201.0,3.0,105,33,-3,-2,9,6,-3,-2,-1,-3
34,114,62,30,2,207.0,6.0,105,34,-5,-3,7,5,3,2,-1,-4
35,115,62,30,2,213.0,3.0,105,35,-5,-3,7,5,0,0,0,-4
36,119,74,37,2,219.0,3.0,105,36,7,4,7,5,3,2,1,-3
37,123,64,31,4,225.0,3.0,105,37,-3,-2,9,6,-3,-2,-1,-4
38,127,62,30,2,231.0,6.0,105,38,-5,-3,7,5,3,2,-1,-5
39,128,62,30,2,237.0,3.0,105,39,-5,-3,7,5,0,0,0,-5
40,132,69,34,9,243.0,3.0,105,40,2,1,2,2,2,1,1,-4
41,136,69,34,9,249.0,1.0,105,41,2,1,2,2,-2,-1,0,-4
42,140,62,30,2,255.0,6.0,105,42,-5,-3,7,5,0,0,-1,-5
43,141,62,30,2,261.0,3.0,105,43,-5,-3,7,5,0,0,0,-5
44,145,69,34,9,267.0,3.0,105,44,2,1,2,2,2,1,1,-4
45,149,69,34,9,273.0,1.0,105,45,2,1,2,2,-2,-1,0,-4
46,153,74,37,2,279.0,4.0,105,46,7,4,7,5,12,7,1,-3
47,156,74,37,2,285.0,4.0,105,47,7,4,7,5,-2,-1,0,-3
48,159,67,33,7,291.0,4.0,105,48,0,0,0,1,1,1,-1,-4
49,162,67,33,7,297.0,4.0,105,49,0,0,0,1,1,1,0,-4
50,165,67,33,7,303.0,3.0,105,50,0,0,0,1,1,1,0,-4
51,169,67,33,7,309.0,2.0,105,51,0,0,0,1,1,1,0,-4
52,172,67,33,7,315.0,4.0,105,52,0,0,0,1,-4,-2,0,-4
53,175,67,33,7,321.0,4.0,105,53,0,0,0,1,1,1,0,-4
54,178,64,31,4,327.0,4.0,105,54,-3,-2,9,6,2,1,-1,-5
55,182,62,30,2,333.0,4.0,105,55,-5,-3,7,5,-2,-1,-1,-6
56,185,64,31,4,339.0,3.0,105,56,-3,-2,9,6,-2,-1,1,-5
57,188,66,32,6,345.0,2.0,105,57,-1,-1,11,7,-1,-1,1,-4
58,191,71,35,11,351.0,3.0,105,58,4,2,4,3,2,1,1,-3
59,195,67,33,7,357.0,4.0,105,59,0,0,0,1,-2,-1,-1,-4
60,198,64,31,4,363.0,2.0,105,60,-3,-2,9,6,-2,-1,-1,-5
61,201,69,34,9,369.0,2.0,105,61,2,1,2,2,2,1,1,-4
62,204,67,33,7,375.0,6.0,105,62,0,0,0,1,1,1,-1,-5
63,205,69,34,9,381.0,3.0,105,63,2,1,2,2,2,1,1,-4
64,206,69,34,9,384.0,1.0,105,64,2,1,2,2,0,0,0,-4
65,209,81,41,9,387.0,3.0,105,65,14,8,2,2,3,2,1,-3
66,213,71,35,11,393.0,3.0,105,66,4,2,4,3,-3,-2,-1,-4
67,217,69,34,9,399.0,6.0,105,67,2,1,2,2,3,2,-1,-5
68,218,69,34,9,405.0,3.0,105,68,2,1,2,2,0,0,0,-5
69,222,81,41,9,411.0,3.0,105,69,14,8,2,2,3,2,1,-4
70,226,71,35,11,417.0,3.0,105,70,4,2,4,3,-3,-2,-1,-5
71,230,69,34,9,423.0,6.0,105,71,2,1,2,2,3,2,-1,-6
72,231,69,34,9,429.0,3.0,105,72,2,1,2,2,0,0,0,-6
73,235,76,38,4,435.0,3.0,105,73,9,5,9,6,2,1,1,-5
74,239,76,38,4,441.0,1.0,105,74,9,5,9,6,-2,-1,0,-5
75,243,69,34,9,447.0,6.0,105,75,2,1,2,2,0,0,-1,-6
76,244,69,34,9,453.0,3.0,105,76,2,1,2,2,0,0,0,-6
77,248,76,38,4,459.0,3.0,105,77,9,5,9,6,2,1,1,-5
78,252,76,38,4,465.0,1.0,105,78,9,5,9,6,-2,-1,0,-5
79,256,81,41,9,471.0,4.0,105,79,14,8,2,2,12,7,1,-4
80,259,81,41,9,477.0,4.0,105,80,14,8,2,2,-2,-1,0,-4
81,262,74,37,2,483.0,4.0,105,81,7,4,7,5,1,1,-1,-5
82,265,74,37,2,489.0,4.0,105,82,7,4,7,5,1,1,0,-5
83,268,74,37,2,495.0,3.0,105,83,7,4,7,5,1,1,0,-5
84,272,74,37,2,501.0,2.0,105,84,7,4,7,5,1,1,0,-5
85,275,74,37,2,507.0,4.0,105,85,7,4,7,5,-4,-2,0,-5
86,278,74,37,2,513.0,4.0,105,86,7,4,7,5,1,1,0,-5
87,281,71,35,11,519.0,4.0,105,87,4,2,4,3,2,1,-1,-6
88,285,69,34,9,525.0,4.0,105,88,2,1,2,2,-2,-1,-1,-7
89,288,71,35,11,531.0,3.0,105,89,4,2,4,3,-2,-1,1,-6
90,291,73,36,1,537.0,2.0,105,90,6,3,6,4,-1,-1,1,-5
91,294,78,39,6,543.0,3.0,105,91,11,6,11,7,2,1,1,-4
92,298,74,37,2,549.0,4.0,105,92,7,4,7,5,-2,-1,-1,-5
93,301,71,35,11,555.0,2.0,105,93,4,2,4,3,-2,-1,-1,-6
94,304,76,38,4,561.0,2.0,105,94,9,5,9,6,2,1,1,-5
95,307,74,37,2,567.0,6.0,105,95,7,4,7,5,1,1,-1,-6
96,308,74,37,2,573.0,3.0,105,96,7,4,7,5,0,0,0,-6
97,312,81,41,9,579.0,3.0,105,97,14,8,2,2,3,2,1,-5
98,316,71,35,11,585.0,3.0,105,98,4,2,4,3,-3,-2,-1,-6
99,320,69,34,9,591.0,6.0,105,99,2,1,2,2,3,2,-1,-7
100,321,69,34,9,597.0,3.0,105,100,2,1,2,2,0,0,0,-7
101,325,81,41,9,603.0,3.0,105,101,14,8,2,2,3,2,1,-6
102,329,71,35,11,609.0,3.0,105,102,4,2,4,3,-3,-2,-1,-7
103,333,69,34,9,615.0,6.0,105,103,2,1,2,2,3,2,-1,-8
104,334,69,34,9,621.0,3.0,105,104,2,1,2,2,0,0,0,-8
105,338,76,38,4,627.0,3.0,105,105,9,5,9,6,2,1,1,-7
106,342,76,38,4,633.0,1.0,105,106,9,5,9,6,-2,-1,0,-7
107,346,69,34,9,639.0,6.0,105,107,2,1,2,2,0,0,-1,-8
108,347,69,34,9,645.0,3.0,105,108,2,1,2,2,0,0,0,-8
109,351,76,38,4,651.0,3.0,105,109,9,5,9,6,2,1,1,-7
110,355,76,38,4,657.0,1.0,105,110,9,5,9,6,-2,-1,0,-7
111,359,81,41,9,663.0,4.0,105,111,14,8,2,2,12,7,1,-6
112,362,81,41,9,669.0,4.0,105,112,14,8,2,2,-2,-1,0,-6
113,365,74,37,2,675.0,4.0,105,113,7,4,7,5,1,1,-1,-7
114,368,74,37,2,681.0,4.0,105,114,7,4,7,5,1,1,0,-7
115,371,74,37,2,687.0,3.0,105,115,7,4,7,5,1,1,0,-7
116,375,74,37,2,693.0,2.0,105,116,7,4,7,5,1,1,0,-7
117,378,74,37,2,699.0,4.0,105,117,7,4,7,5,-4,-2,0,-7
118,381,74,37,2,705.0,4.0,105,118,7,4,7,5,1,1,0,-7
119,384,71,35,11,711.0,4.0,105,119,4,2,4,3,2,1,-1,-8
120,388,69,34,9,717.0,4.0,105,120,2,1,2,2,-2,-1,-1,-9
121,391,71,35,11,723.0,3.0,105,121,4,2,4,3,-2,-1,1,-8
122,394,73,36,1,729.0,2.0,105,122,6,3,6,4,-1,-1,1,-7
123,397,78,39,6,735.0,3.0,105,123,11,6,11,7,2,1,1,-6
124,401,74,37,2,741.0,4.0,105,124,7,4,7,5,-2,-1,-1,-7
125,404,71,35,11,747.0,2.0,105,125,4,2,4,3,-2,-1,-1,-8
126,407,76,38,4,753.0,2.0,105,126,9,5,9,6,2,1,1,-7
127,410,74,37,2,759.0,6.0,105,127,7,4,7,5,1,1,-1,-8
128,411,74,37,2,765.0,3.0,105,128,7,4,7,5,0,0,0,-8
