,index,midi_note_num,diatonic_note_num,chromatic_pitch_class,onset,duration,velocity,bar_count,relative_chromatic_pitch,relative_diatonic_pitch,chromatic_scale_degree,diatonic_scale_degree,chromatic_interval,diatonic_interval,parsons_code,parsons_cumsum
0,0,76,38,4,0.0,3.0,105,0,14,8,2,2,0,0,0,0
1,1,78,39,6,3.0,1.0,95,0,16,9,4,3,2,1,1,1
2,4,76,38,4,6.0,1.0,105,1,14,8,2,2,2,1,-1,0
3,7,71,35,11,9.0,1.0,95,1,9,5,9,6,2,1,-1,-1
4,10,76,38,4,12.0,1.0,105,2,14,8,2,2,2,1,1,0
5,13,79,40,7,15.0,1.0,95,2,17,10,5,4,10,6,1,1
6,16,74,37,2,18.0,1.0,105,3,12,7,0,1,-2,-1,-1,0
7,19,71,35,11,21.0,1.0,95,3,9,5,9,6,4,2,-1,-1
8,22,76,38,4,24.0,1.0,105,4,14,8,2,2,2,1,1,0
9,25,78,39,6,27.0,1.0,95,4,16,9,4,3,9,5,1,1
10,28,76,38,4,30.0,1.0,105,5,14,8,2,2,2,1,-1,0
11,31,71,35,11,33.0,1.0,95,5,9,5,9,6,2,1,-1,-1
12,34,79,40,7,36.0,3.0,105,6,17,10,5,4,5,3,1,0
13,35,79,40,7,39.0,1.0,95,6,17,10,5,4,0,0,0,0
14,38,74,37,2,42.0,1.0,105,7,12,7,0,1,-2,-1,-1,-1
15,41,76,38,4,45.0,3.0,95,7,14,8,2,2,9,5,1,0
16,42,78,39,6,48.0,1.0,95,7,16,9,4,3,2,1,1,1
17,45,76,38,4,51.0,1.0,105,8,14,8,2,2,2,1,-1,0
18,48,71,35,11,54.0,1.0,95,8,9,5,9,6,2,1,-1,-1
19,51,76,38,4,57.0,1.0,105,9,14,8,2,2,2,1,1,0
20,54,79,40,7,60.0,1.0,95,9,17,10,5,4,10,6,1,1
21,57,74,37,2,63.0,1.0,105,10,12,7,0,1,-2,-1,-1,0
22,60,71,35,11,66.0,1.0,95,10,9,5,9,6,4,2,-1,-1
23,63,76,38,4,69.0,1.0,105,11,14,8,2,2,2,1,1,0
24,66,78,39,6,72.0,1.0,95,11,16,9,4,3,9,5,1,1
25,69,76,38,4,75.0,1.0,105,12,14,8,2,2,2,1,-1,0
26,72,71,35,11,78.0,1.0,95,12,9,5,9,6,2,1,-1,-1
27,75,79,40,7,81.0,3.0,105,13,17,10,5,4,5,3,1,0
28,76,79,40,7,84.0,1.0,95,13,17,10,5,4,0,0,0,0
29,79,74,37,2,87.0,1.0,105,14,12,7,0,1,-2,-1,-1,-1
30,82,69,34,9,90.0,2.0,95,14,7,4,7,5,2,1,-1,-2
31,84,81,41,9,93.0,1.0,95,14,19,11,7,5,0,0,1,-1
32,87,81,41,9,96.0,1.0,105,15,19,11,7,5,0,0,0,-1
33,90,81,41,9,99.0,1.0,95,15,19,11,7,5,0,0,0,-1
34,93,69,34,9,102.0,2.0,105,16,7,4,7,5,-12,-7,-1,-2
35,95,81,41,9,105.0,1.0,95,16,19,11,7,5,0,0,1,-1
36,98,79,40,7,108.0,1.0,105,17,17,10,5,4,1,1,-1,-2
37,101,74,37,2,111.0,1.0,95,17,12,7,0,1,-2,-1,-1,-3
38,104,69,34,9,114.0,2.0,105,18,7,4,7,5,2,1,-1,-4
39,106,81,41,9,117.0,1.0,95,18,19,11,7,5,0,0,1,-3
40,109,81,41,9,120.0,1.0,105,19,19,11,7,5,0,0,0,-3
41,112,81,41,9,123.0,1.0,95,19,19,11,7,5,0,0,0,-3
42,115,79,40,7,126.0,3.0,105,20,17,10,5,4,1,1,-1,-4
43,116,79,40,7,129.0,1.0,95,20,17,10,5,4,0,0,0,-4
44,119,74,37,2,132.0,1.0,105,21,12,7,0,1,-2,-1,-1,-5
45,122,69,34,9,135.0,2.0,95,21,7,4,7,5,2,1,-1,-6
46,124,81,41,9,138.0,1.0,95,21,19,11,7,5,0,0,1,-5
47,127,81,41,9,141.0,1.0,105,22,19,11,7,5,0,0,0,-5
48,130,81,41,9,144.0,1.0,95,22,19,11,7,5,0,0,0,-5
49,133,69,34,9,147.0,2.0,105,23,7,4,7,5,-12,-7,-1,-6
50,135,81,41,9,150.0,1.0,95,23,19,11,7,5,0,0,1,-5
51,138,79,40,7,153.0,1.0,105,24,17,10,5,4,1,1,-1,-6
52,141,74,37,2,156.0,1.0,95,24,12,7,0,1,-2,-1,-1,-7
53,144,69,34,9,159.0,2.0,105,25,7,4,7,5,2,1,-1,-8
54,146,81,41,9,162.0,1.0,95,25,19,11,7,5,0,0,1,-7
55,149,81,41,9,165.0,1.0,105,26,19,11,7,5,0,0,0,-7
56,152,81,41,9,168.0,1.0,95,26,19,11,7,5,0,0,0,-7
57,155,69,34,9,171.0,2.0,105,27,7,4,7,5,-9,-5,-1,-8
58,157,81,41,9,174.0,1.0,95,27,19,11,7,5,0,0,1,-7
59,160,79,40,7,177.0,3.0,105,28,17,10,5,4,1,1,-1,-8
60,161,79,40,7,180.0,1.0,95,28,17,10,5,4,0,0,0,-8
61,164,74,37,2,183.0,1.0,105,29,12,7,0,1,-2,-1,-1,-9
62,167,71,35,11,186.0,1.0,95,29,9,5,9,6,4,2,-1,-10
63,170,67,33,7,189.0,6.0,105,30,5,3,5,4,-4,-2,-1,-11
64,171,81,41,9,195.0,3.0,105,31,19,11,7,5,14,8,1,-10
65,172,79,40,7,198.0,3.0,95,31,17,10,5,4,-2,-1,-1,-11
66,173,69,34,9,201.0,2.0,105,32,7,4,7,5,-10,-6,-1,-12
67,175,76,38,4,204.0,3.0,95,32,14,8,2,2,0,0,1,-11
68,176,69,34,9,207.0,2.0,105,33,7,4,7,5,-7,-4,-1,-12
69,178,76,38,4,210.0,3.0,95,33,14,8,2,2,0,0,1,-11
70,179,69,34,9,213.0,2.0,105,34,7,4,7,5,-7,-4,-1,-12
71,181,76,38,4,216.0,3.0,95,34,14,8,2,2,0,0,1,-11
72,182,67,33,7,219.0,2.0,105,35,5,3,5,4,-9,-5,-1,-12
73,184,74,37,2,222.0,3.0,95,35,12,7,0,1,0,0,1,-11
74,185,69,34,9,225.0,2.0,105,36,7,4,7,5,-5,-3,-1,-12
75,187,76,38,4,228.0,3.0,95,36,14,8,2,2,0,0,1,-11
76,188,69,34,9,231.0,2.0,105,37,7,4,7,5,-7,-4,-1,-12
77,190,76,38,4,234.0,3.0,95,37,14,8,2,2,0,0,1,-11
78,191,71,35,11,237.0,1.0,105,38,9,5,9,6,-5,-3,-1,-12
79,194,73,36,1,240.0,2.0,95,38,11,6,11,7,6,3,1,-11
80,196,67,33,7,243.0,2.0,105,39,5,3,5,4,-2,-1,-1,-12
81,198,69,34,9,249.0,2.0,105,40,7,4,7,5,2,1,1,-11
82,200,76,38,4,252.0,3.0,95,40,14,8,2,2,0,0,1,-10
83,201,69,34,9,255.0,2.0,105,41,7,4,7,5,-7,-4,-1,-11
84,203,76,38,4,258.0,3.0,95,41,14,8,2,2,0,0,1,-10
85,204,69,34,9,261.0,2.0,105,42,7,4,7,5,-7,-4,-1,-11
86,206,76,38,4,264.0,3.0,95,42,14,8,2,2,0,0,1,-10
87,207,67,33,7,267.0,2.0,105,43,5,3,5,4,-9,-5,-1,-11
88,209,74,37,2,270.0,3.0,95,43,12,7,0,1,0,0,1,-10
89,210,69,34,9,273.0,2.0,105,44,7,4,7,5,-5,-3,-1,-11
90,212,76,38,4,276.0,3.0,95,44,14,8,2,2,0,0,1,-10
91,213,69,34,9,279.0,2.0,105,45,7,4,7,5,-7,-4,-1,-11
92,215,76,38,4,282.0,3.0,95,45,14,8,2,2,0,0,1,-10
93,216,71,35,11,285.0,1.0,105,46,9,5,9,6,-5,-3,-1,-11
94,219,73,36,1,288.0,2.0,95,46,11,6,11,7,6,3,1,-10
95,221,67,33,7,291.0,2.0,105,47,5,3,5,4,-2,-1,-1,-11
96,223,69,34,9,297.0,1.0,105,48,7,4,7,5,2,1,1,-10
97,226,69,34,9,300.0,2.0,95,48,7,4,7,5,-7,-4,0,-10
98,228,69,34,9,303.0,2.0,105,49,7,4,7,5,-7,-4,0,-10
99,230,69,34,9,306.0,2.0,95,49,7,4,7,5,-7,-4,0,-10
100,232,69,34,9,309.0,1.0,105,50,7,4,7,5,-7,-4,0,-10
101,235,69,34,9,312.0,2.0,95,50,7,4,7,5,-7,-4,0,-10
102,237,67,33,7,315.0,3.0,105,51,5,3,5,4,-9,-5,-1,-11
103,238,67,33,7,318.0,2.0,95,51,5,3,5,4,0,0,0,-11
104,240,69,34,9,321.0,1.0,105,52,7,4,7,5,2,1,1,-10
105,243,69,34,9,324.0,2.0,95,52,7,4,7,5,-7,-4,0,-10
106,245,69,34,9,327.0,2.0,105,53,7,4,7,5,-7,-4,0,-10
107,247,69,34,9,330.0,2.0,95,53,7,4,7,5,-7,-4,0,-10
108,249,71,35,11,333.0,1.0,105,54,9,5,9,6,-5,-3,1,-9
109,252,73,36,1,336.0,2.0,95,54,11,6,11,7,6,3,1,-8
110,254,67,33,7,339.0,2.0,105,55,5,3,5,4,-2,-1,-1,-9
111,256,69,34,9,345.0,1.0,105,56,7,4,7,5,2,1,1,-8
112,259,69,34,9,348.0,2.0,95,56,7,4,7,5,-7,-4,0,-8
113,261,69,34,9,351.0,2.0,105,57,7,4,7,5,-7,-4,0,-8
114,263,69,34,9,354.0,2.0,95,57,7,4,7,5,-7,-4,0,-8
115,265,69,34,9,357.0,1.0,105,58,7,4,7,5,-7,-4,0,-8
116,268,69,34,9,360.0,2.0,95,58,7,4,7,5,-7,-4,0,-8
117,270,67,33,7,363.0,3.0,105,59,5,3,5,4,-9,-5,-1,-9
118,271,67,33,7,366.0,2.0,95,59,5,3,5,4,0,0,0,-9
119,273,69,34,9,369.0,1.0,105,60,7,4,7,5,2,1,1,-8
120,276,69,34,9,372.0,2.0,95,60,7,4,7,5,-7,-4,0,-8
121,278,69,34,9,375.0,2.0,105,61,7,4,7,5,-7,-4,0,-8
122,280,69,34,9,378.0,2.0,95,61,7,4,7,5,-7,-4,0,-8
123,282,69,34,9,381.0,1.0,105,62,7,4,7,5,-7,-4,0,-8
124,285,69,34,9,384.0,2.0,95,62,7,4,7,5,-7,-4,0,-8
125,287,71,35,11,387.0,1.0,105,63,9,5,9,6,-5,-3,1,-7
126,290,73,36,1,390.0,2.0,95,63,11,6,11,7,6,3,1,-6
127,292,67,33,7,393.0,3.0,105,64,5,3,5,4,-2,-1,-1,-7
128,293,67,33,7,396.0,3.0,95,64,5,3,5,4,0,0,0,-7
129,294,67,33,7,399.0,6.0,105,65,5,3,5,4,0,0,0,-7
