,index,midi_note_num,diatonic_note_num,chromatic_pitch_class,onset,duration,velocity,bar_count,relative_chromatic_pitch,relative_diatonic_pitch,chromatic_scale_degree,diatonic_scale_degree,chromatic_interval,diatonic_interval,parsons_code,parsons_cumsum
0,3,67,33,7,2.0,2.0,105,0,0,0,0,1,0,0,0,0
1,5,74,37,2,6.0,2.0,95,0,7,4,7,5,0,0,1,1
2,8,70,35,10,10.0,2.0,105,1,3,2,3,3,-4,-2,-1,0
3,11,65,32,5,14.0,1.33,95,1,-2,-1,10,7,-2,-1,-1,-1
4,15,67,33,7,18.0,1.33,105,2,0,0,0,1,2,1,1,0
5,19,70,35,10,22.0,1.33,95,2,3,2,3,3,1,1,1,1
6,23,74,37,2,26.0,1.33,105,3,7,4,7,5,2,1,1,2
7,27,74,37,2,30.0,1.33,95,3,7,4,7,5,-1,-1,0,2
8,32,62,30,2,34.0,2.0,105,4,-5,-3,7,5,-5,-3,-1,1
9,34,67,33,7,38.0,2.0,95,4,0,0,0,1,0,0,1,2
10,37,70,35,10,42.0,2.0,105,5,3,2,3,3,1,1,1,3
11,40,65,32,5,46.0,1.33,95,5,-2,-1,10,7,-2,-1,-1,2
12,45,67,33,7,50.0,1.33,105,6,0,0,0,1,2,1,1,3
13,50,65,32,5,54.0,1.33,95,6,-2,-1,10,7,-2,-1,-1,2
14,55,67,33,7,58.0,2.0,105,7,0,0,0,1,2,1,1,3
15,57,67,33,7,62.0,4.0,95,7,0,0,0,1,0,0,0,3
16,58,62,30,2,66.0,0.67,105,8,-5,-3,7,5,-5,-3,-1,2
17,61,67,33,7,68.0,2.0,105,9,0,0,0,1,1,1,1,3
18,63,74,37,2,72.0,2.0,95,9,7,4,7,5,0,0,1,4
19,66,70,35,10,76.0,2.0,105,10,3,2,3,3,-4,-2,-1,3
20,69,65,32,5,80.0,1.33,95,10,-2,-1,10,7,-2,-1,-1,2
21,73,67,33,7,84.0,1.33,105,11,0,0,0,1,2,1,1,3
22,77,70,35,10,88.0,1.33,95,11,3,2,3,3,1,1,1,4
23,81,74,37,2,92.0,1.33,105,12,7,4,7,5,2,1,1,5
24,85,74,37,2,96.0,1.33,95,12,7,4,7,5,-1,-1,0,5
25,90,62,30,2,100.0,2.0,105,13,-5,-3,7,5,-5,-3,-1,4
26,92,67,33,7,104.0,2.0,95,13,0,0,0,1,0,0,1,5
27,95,70,35,10,108.0,2.0,105,14,3,2,3,3,1,1,1,6
28,98,65,32,5,112.0,1.33,95,14,-2,-1,10,7,-2,-1,-1,5
29,103,67,33,7,116.0,1.33,105,15,0,0,0,1,2,1,1,6
30,108,65,32,5,120.0,1.33,95,15,-2,-1,10,7,-2,-1,-1,5
31,113,67,33,7,124.0,2.0,105,16,0,0,0,1,2,1,1,6
32,115,67,33,7,128.0,4.0,95,16,0,0,0,1,0,0,0,6
33,116,70,35,10,132.0,2.0,105,17,3,2,3,3,3,2,1,7
34,119,74,37,2,136.0,2.0,95,17,7,4,7,5,2,1,1,8
35,122,77,39,5,140.0,2.0,105,18,10,6,10,7,2,1,1,9
36,125,74,37,2,144.0,1.33,95,18,7,4,7,5,-1,-1,-1,8
37,130,65,32,5,148.0,2.0,105,19,-2,-1,10,7,-2,-1,-1,7
38,133,69,34,9,152.0,2.0,95,19,2,1,2,2,2,1,1,8
39,136,72,36,0,156.0,2.0,105,20,5,3,5,4,2,1,1,9
40,139,69,34,9,160.0,1.33,95,20,2,1,2,2,-1,-1,-1,8
41,142,67,33,7,164.0,2.0,105,21,0,0,0,1,2,1,-1,7
42,145,70,35,10,168.0,2.0,95,21,3,2,3,3,1,1,1,8
43,148,74,37,2,172.0,2.0,105,22,7,4,7,5,2,1,1,9
44,151,70,35,10,176.0,1.33,95,22,3,2,3,3,-2,-1,-1,8
45,154,70,35,10,180.0,1.33,105,23,3,2,3,3,1,1,0,8
46,159,69,34,9,184.0,1.33,95,23,2,1,2,2,-1,-1,-1,7
47,164,67,33,7,188.0,2.0,105,24,0,0,0,1,-2,-1,-1,6
48,166,67,33,7,192.0,4.0,95,24,0,0,0,1,0,0,0,6
49,167,70,35,10,196.0,2.0,105,25,3,2,3,3,3,2,1,7
50,170,74,37,2,200.0,2.0,95,25,7,4,7,5,2,1,1,8
51,173,77,39,5,204.0,2.0,105,26,10,6,10,7,2,1,1,9
52,176,74,37,2,208.0,1.33,95,26,7,4,7,5,-1,-1,-1,8
53,181,65,32,5,212.0,2.0,105,27,-2,-1,10,7,-2,-1,-1,7
54,184,69,34,9,216.0,2.0,95,27,2,1,2,2,2,1,1,8
55,187,72,36,0,220.0,2.0,105,28,5,3,5,4,2,1,1,9
56,190,69,34,9,224.0,1.33,95,28,2,1,2,2,-1,-1,-1,8
57,193,67,33,7,228.0,2.0,105,29,0,0,0,1,2,1,-1,7
58,196,70,35,10,232.0,2.0,95,29,3,2,3,3,1,1,1,8
59,199,74,37,2,236.0,2.0,105,30,7,4,7,5,2,1,1,9
60,202,70,35,10,240.0,1.33,95,30,3,2,3,3,-2,-1,-1,8
61,205,70,35,10,244.0,1.33,105,31,3,2,3,3,1,1,0,8
62,210,69,34,9,248.0,1.33,95,31,2,1,2,2,-1,-1,-1,7
63,215,67,33,7,252.0,2.0,105,32,0,0,0,1,-2,-1,-1,6
64,217,67,33,7,256.0,4.0,95,32,0,0,0,1,0,0,0,6
65,218,72,36,0,260.0,2.0,105,33,5,3,5,4,5,3,1,7
66,220,72,36,0,264.0,2.0,95,33,5,3,5,4,0,0,0,7
67,223,65,32,5,268.0,2.0,105,34,-2,-1,10,7,-2,-1,-1,6
68,226,65,32,5,272.0,1.33,95,34,-2,-1,10,7,-2,-1,0,6
69,229,72,36,0,276.0,2.0,105,35,5,3,5,4,12,7,1,7
70,231,72,36,0,280.0,2.0,95,35,5,3,5,4,0,0,0,7
71,234,75,38,3,284.0,2.0,105,36,8,5,8,6,1,1,1,8
72,237,70,35,10,288.0,1.33,95,36,3,2,3,3,-2,-1,-1,7
73,242,72,36,0,292.0,2.0,105,37,5,3,5,4,2,1,1,8
74,244,72,36,0,296.0,2.0,95,37,5,3,5,4,0,0,0,8
75,247,65,32,5,300.0,2.0,105,38,-2,-1,10,7,-2,-1,-1,7
76,250,65,32,5,304.0,1.33,95,38,-2,-1,10,7,-2,-1,0,7
77,254,63,31,3,308.0,1.33,105,39,-4,-2,8,6,1,1,-1,6
78,259,62,30,2,312.0,1.33,95,39,-5,-3,7,5,-1,-1,-1,5
79,264,60,29,0,316.0,2.0,105,40,-7,-4,5,4,-2,-1,-1,4
80,266,60,29,0,320.0,4.0,95,40,-7,-4,5,4,0,0,0,4
81,267,72,36,0,324.0,2.0,105,41,5,3,5,4,12,7,1,5
82,269,72,36,0,328.0,2.0,95,41,5,3,5,4,0,0,0,5
83,272,65,32,5,332.0,2.0,105,42,-2,-1,10,7,-2,-1,-1,4
84,275,65,32,5,336.0,1.33,95,42,-2,-1,10,7,-2,-1,0,4
85,278,72,36,0,340.0,2.0,105,43,5,3,5,4,12,7,1,5
86,280,72,36,0,344.0,2.0,95,43,5,3,5,4,0,0,0,5
87,283,75,38,3,348.0,2.0,105,44,8,5,8,6,1,1,1,6
88,286,70,35,10,352.0,1.33,95,44,3,2,3,3,-2,-1,-1,5
89,291,72,36,0,356.0,2.0,105,45,5,3,5,4,2,1,1,6
90,293,72,36,0,360.0,2.0,95,45,5,3,5,4,0,0,0,6
91,296,65,32,5,364.0,2.0,105,46,-2,-1,10,7,-2,-1,-1,5
92,299,65,32,5,368.0,1.33,95,46,-2,-1,10,7,-2,-1,0,5
93,303,63,31,3,372.0,1.33,105,47,-4,-2,8,6,1,1,-1,4
94,308,62,30,2,376.0,1.33,95,47,-5,-3,7,5,-1,-1,-1,3
95,313,60,29,0,380.0,2.0,105,48,-7,-4,5,4,-2,-1,-1,2
96,315,60,29,0,384.0,4.0,95,48,-7,-4,5,4,0,0,0,2
