,index,midi_note_num,diatonic_note_num,chromatic_pitch_class,onset,duration,velocity,bar_count,relative_chromatic_pitch,relative_diatonic_pitch,chromatic_scale_degree,diatonic_scale_degree,chromatic_interval,diatonic_interval,parsons_code,parsons_cumsum
0,2,74,37,2,2.0,2.0,105,0,3,2,3,3,0,0,0,0
1,4,71,35,11,6.0,2.0,95,0,0,0,0,1,0,0,-1,-1
2,7,78,39,6,10.0,2.0,105,1,7,4,7,5,2,1,1,0
3,9,78,39,6,14.0,2.0,95,1,7,4,7,5,-3,-2,0,0
4,12,73,36,1,18.0,2.0,105,2,2,1,2,2,-1,-1,-1,-1
5,14,69,34,9,22.0,2.0,95,2,-2,-1,10,7,0,0,-1,-2
6,17,73,36,1,26.0,1.5,105,3,2,1,2,2,2,1,1,-1
7,21,76,38,4,30.0,2.0,95,3,5,3,5,4,2,1,1,0
8,24,74,37,2,34.0,2.0,105,4,3,2,3,3,-2,-1,-1,-1
9,27,71,35,11,38.0,2.0,95,4,0,0,0,1,-3,-2,-1,-2
10,30,78,39,6,42.0,2.0,105,5,7,4,7,5,2,1,1,-1
11,32,78,39,6,46.0,2.0,95,5,7,4,7,5,-3,-2,0,-1
12,35,78,39,6,50.0,1.5,105,6,7,4,7,5,2,1,0,-1
13,39,73,36,1,54.0,2.0,95,6,2,1,2,2,-8,-5,-1,-2
14,42,71,35,11,58.0,4.0,105,7,0,0,0,1,-2,-1,-1,-3
15,43,71,35,11,62.0,2.0,95,7,0,0,0,1,0,0,0,-3
16,46,74,37,2,66.0,2.0,105,8,3,2,3,3,-2,-1,1,-2
17,48,71,35,11,70.0,2.0,95,8,0,0,0,1,0,0,-1,-3
18,51,78,39,6,74.0,2.0,105,9,7,4,7,5,2,1,1,-2
19,53,78,39,6,78.0,2.0,95,9,7,4,7,5,-3,-2,0,-2
20,56,73,36,1,82.0,2.0,105,10,2,1,2,2,-1,-1,-1,-3
21,58,69,34,9,86.0,2.0,95,10,-2,-1,10,7,0,0,-1,-4
22,61,73,36,1,90.0,1.5,105,11,2,1,2,2,2,1,1,-3
23,65,76,38,4,94.0,2.0,95,11,5,3,5,4,2,1,1,-2
24,68,74,37,2,98.0,2.0,105,12,3,2,3,3,-2,-1,-1,-3
25,71,71,35,11,102.0,2.0,95,12,0,0,0,1,-3,-2,-1,-4
26,74,78,39,6,106.0,2.0,105,13,7,4,7,5,2,1,1,-3
27,76,78,39,6,110.0,2.0,95,13,7,4,7,5,-3,-2,0,-3
28,79,78,39,6,114.0,1.5,105,14,7,4,7,5,2,1,0,-3
29,83,73,36,1,118.0,2.0,95,14,2,1,2,2,-8,-5,-1,-4
30,86,71,35,11,122.0,4.0,105,15,0,0,0,1,-2,-1,-1,-5
31,87,71,35,11,126.0,2.0,95,15,0,0,0,1,0,0,0,-5
32,89,81,41,9,130.0,2.0,105,16,10,6,10,7,2,1,1,-4
33,91,78,39,6,134.0,2.0,95,16,7,4,7,5,4,2,-1,-5
34,94,78,39,6,138.0,2.0,105,17,7,4,7,5,4,2,0,-5
35,96,78,39,6,142.0,2.0,95,17,7,4,7,5,-3,-2,0,-5
36,99,76,38,4,146.0,2.0,105,18,5,3,5,4,2,1,-1,-6
37,101,73,36,1,150.0,2.0,95,18,2,1,2,2,4,2,-1,-7
38,104,76,38,4,154.0,1.5,105,19,5,3,5,4,2,1,1,-6
39,108,76,38,4,158.0,2.0,95,19,5,3,5,4,3,2,0,-6
40,111,81,41,9,162.0,2.0,105,20,10,6,10,7,2,1,1,-5
41,113,78,39,6,166.0,2.0,95,20,7,4,7,5,4,2,-1,-6
42,116,78,39,6,170.0,2.0,105,21,7,4,7,5,4,2,0,-6
43,118,78,39,6,174.0,2.0,95,21,7,4,7,5,-3,-2,0,-6
44,121,78,39,6,178.0,1.5,105,22,7,4,7,5,2,1,0,-6
45,125,73,36,1,182.0,2.0,95,22,2,1,2,2,-8,-5,-1,-7
46,128,71,35,11,186.0,4.0,105,23,0,0,0,1,-2,-1,-1,-8
47,129,71,35,11,190.0,2.0,95,23,0,0,0,1,0,0,0,-8
48,131,81,41,9,194.0,2.0,105,24,10,6,10,7,2,1,1,-7
49,133,78,39,6,198.0,2.0,95,24,7,4,7,5,4,2,-1,-8
50,136,78,39,6,202.0,2.0,105,25,7,4,7,5,4,2,0,-8
51,138,78,39,6,206.0,2.0,95,25,7,4,7,5,-3,-2,0,-8
52,141,76,38,4,210.0,2.0,105,26,5,3,5,4,2,1,-1,-9
53,143,73,36,1,214.0,2.0,95,26,2,1,2,2,4,2,-1,-10
54,146,76,38,4,218.0,1.5,105,27,5,3,5,4,2,1,1,-9
55,150,76,38,4,222.0,2.0,95,27,5,3,5,4,3,2,0,-9
56,153,74,37,2,226.0,2.0,105,28,3,2,3,3,-5,-3,-1,-10
57,156,71,35,11,230.0,2.0,95,28,0,0,0,1,-3,-2,-1,-11
58,159,78,39,6,234.0,2.0,105,29,7,4,7,5,2,1,1,-10
59,161,78,39,6,238.0,2.0,95,29,7,4,7,5,-3,-2,0,-10
60,164,78,39,6,242.0,1.5,105,30,7,4,7,5,2,1,0,-10
61,168,73,36,1,246.0,2.0,95,30,2,1,2,2,-8,-5,-1,-11
62,171,71,35,11,250.0,4.0,105,31,0,0,0,1,-2,-1,-1,-12
63,172,71,35,11,254.0,2.0,95,31,0,0,0,1,0,0,0,-12
64,174,71,35,11,258.0,2.0,105,32,0,0,0,1,-5,-3,0,-12
65,177,71,35,11,262.0,2.0,95,32,0,0,0,1,-2,-1,0,-12
66,180,78,39,6,266.0,1.5,105,33,7,4,7,5,2,1,1,-11
67,184,78,39,6,270.0,2.0,95,33,7,4,7,5,-3,-2,0,-11
68,187,69,34,9,274.0,2.0,105,34,-2,-1,10,7,-4,-2,-1,-12
69,190,69,34,9,278.0,2.0,95,34,-2,-1,10,7,-2,-1,0,-12
70,193,73,36,1,282.0,1.5,105,35,2,1,2,2,2,1,1,-11
71,197,78,39,6,286.0,1.5,95,35,7,4,7,5,2,1,1,-10
72,201,71,35,11,290.0,2.0,105,36,0,0,0,1,2,1,-1,-11
73,204,71,35,11,294.0,2.0,95,36,0,0,0,1,-2,-1,0,-11
74,207,78,39,6,298.0,1.5,105,37,7,4,7,5,2,1,1,-10
75,211,73,36,1,302.0,2.0,95,37,2,1,2,2,-8,-5,-1,-11
76,214,78,39,6,306.0,1.5,105,38,7,4,7,5,5,3,1,-10
77,218,73,36,1,310.0,2.0,95,38,2,1,2,2,-8,-5,-1,-11
78,221,71,35,11,314.0,4.0,105,39,0,0,0,1,-2,-1,-1,-12
79,222,71,35,11,318.0,2.0,95,39,0,0,0,1,0,0,0,-12
80,225,78,39,6,322.0,2.0,105,40,7,4,7,5,2,1,1,-11
81,227,78,39,6,326.0,2.0,95,40,7,4,7,5,7,4,0,-11
82,230,78,39,6,330.0,1.5,105,41,7,4,7,5,2,1,0,-11
83,234,78,39,6,334.0,2.0,95,41,7,4,7,5,-3,-2,0,-11
84,237,76,38,4,338.0,2.0,105,42,5,3,5,4,3,2,-1,-12
85,239,76,38,4,342.0,2.0,95,42,5,3,5,4,7,4,0,-12
86,242,76,38,4,346.0,1.5,105,43,5,3,5,4,-2,-1,0,-12
87,246,69,34,9,350.0,1.5,95,43,-2,-1,10,7,-4,-2,-1,-13
88,250,78,39,6,354.0,2.0,105,44,7,4,7,5,2,1,1,-12
89,252,78,39,6,358.0,2.0,95,44,7,4,7,5,7,4,0,-12
90,255,78,39,6,362.0,1.5,105,45,7,4,7,5,2,1,0,-12
91,259,73,36,1,366.0,2.0,95,45,2,1,2,2,-8,-5,-1,-13
92,262,78,39,6,370.0,1.5,105,46,7,4,7,5,5,3,1,-12
93,266,73,36,1,374.0,2.0,95,46,2,1,2,2,-8,-5,-1,-13
94,269,71,35,11,378.0,4.0,105,47,0,0,0,1,-2,-1,-1,-14
95,270,71,35,11,382.0,2.0,95,47,0,0,0,1,0,0,0,-14
96,273,78,39,6,386.0,2.0,105,48,7,4,7,5,2,1,1,-13
97,275,78,39,6,390.0,2.0,95,48,7,4,7,5,7,4,0,-13
98,278,78,39,6,394.0,1.5,105,49,7,4,7,5,2,1,0,-13
99,282,78,39,6,398.0,2.0,95,49,7,4,7,5,-3,-2,0,-13
100,285,76,38,4,402.0,2.0,105,50,5,3,5,4,3,2,-1,-14
101,287,76,38,4,406.0,2.0,95,50,5,3,5,4,7,4,0,-14
102,290,76,38,4,410.0,1.5,105,51,5,3,5,4,-2,-1,0,-14
103,294,69,34,9,414.0,1.5,95,51,-2,-1,10,7,-4,-2,-1,-15
104,298,78,39,6,418.0,2.0,105,52,7,4,7,5,2,1,1,-14
105,301,71,35,11,422.0,2.0,95,52,0,0,0,1,-2,-1,-1,-15
106,304,78,39,6,426.0,1.5,105,53,7,4,7,5,2,1,1,-14
107,308,73,36,1,430.0,2.0,95,53,2,1,2,2,-8,-5,-1,-15
108,311,78,39,6,434.0,1.5,105,54,7,4,7,5,5,3,1,-14
109,315,73,36,1,438.0,2.0,95,54,2,1,2,2,-8,-5,-1,-15
110,318,71,35,11,442.0,4.0,105,55,0,0,0,1,-2,-1,-1,-16
111,319,71,35,11,446.0,4.0,95,55,0,0,0,1,0,0,0,-16
