,index,midi_note_num,diatonic_note_num,chromatic_pitch_class,onset,duration,velocity,bar_count,relative_chromatic_pitch,relative_diatonic_pitch,chromatic_scale_degree,diatonic_scale_degree,chromatic_interval,diatonic_interval,parsons_code,parsons_cumsum
0,0,62,30,2,0.0,2.0,105,0,0,0,0,1,0,0,0,0
1,4,66,32,6,4.0,1.0,95,0,4,2,4,3,4,2,1,1
2,8,67,33,7,8.0,2.0,105,1,5,3,5,4,1,1,1,2
3,11,66,32,6,12.0,1.0,95,1,4,2,4,3,-1,-1,-1,1
4,15,74,37,2,16.0,0.67,105,2,12,7,0,1,1,1,1,2
5,21,71,35,11,20.0,1.0,95,2,9,5,9,6,2,1,-1,1
6,25,78,39,6,24.0,1.0,105,3,16,9,4,3,2,1,1,2
7,30,79,40,7,28.0,1.0,95,3,17,10,5,4,5,3,1,3
8,34,62,30,2,32.0,2.0,105,4,0,0,0,1,-12,-7,-1,2
9,38,66,32,6,36.0,1.0,95,4,4,2,4,3,4,2,1,3
10,42,67,33,7,40.0,1.0,105,5,5,3,5,4,1,1,1,4
11,46,61,29,1,44.0,1.0,95,5,-1,-1,11,7,-1,-1,-1,3
12,50,74,37,2,48.0,1.0,105,6,12,7,0,1,8,5,1,4
13,54,76,38,4,52.0,1.0,95,6,14,8,2,2,-2,-1,1,5
14,58,69,34,9,56.0,1.0,105,7,7,4,7,5,-2,-1,-1,4
15,62,62,30,2,60.0,1.0,95,7,0,0,0,1,-2,-1,-1,3
16,66,62,30,2,64.0,2.0,105,8,0,0,0,1,1,1,0,3
17,70,66,32,6,68.0,1.0,95,8,4,2,4,3,4,2,1,4
18,74,67,33,7,72.0,2.0,105,9,5,3,5,4,1,1,1,5
19,77,66,32,6,76.0,1.0,95,9,4,2,4,3,-1,-1,-1,4
20,81,74,37,2,80.0,0.67,105,10,12,7,0,1,1,1,1,5
21,87,71,35,11,84.0,1.0,95,10,9,5,9,6,2,1,-1,4
22,91,78,39,6,88.0,1.0,105,11,16,9,4,3,2,1,1,5
23,96,79,40,7,92.0,1.0,95,11,17,10,5,4,5,3,1,6
24,100,62,30,2,96.0,1.0,105,12,0,0,0,1,-12,-7,-1,5
25,104,62,30,2,100.0,1.0,95,12,0,0,0,1,-7,-4,0,5
26,108,67,33,7,104.0,1.0,105,13,5,3,5,4,-2,-1,1,6
27,114,67,33,7,108.0,1.0,95,13,5,3,5,4,-4,-2,0,6
28,120,74,37,2,112.0,0.67,105,14,12,7,0,1,3,2,1,7
29,126,71,35,11,116.0,1.0,95,14,9,5,9,6,2,1,-1,6
30,130,69,34,9,120.0,1.0,105,15,7,4,7,5,-2,-1,-1,5
31,134,66,32,6,124.0,1.0,95,15,4,2,4,3,2,1,-1,4
32,137,81,41,9,128.0,1.0,105,16,19,11,7,5,19,11,1,5
33,143,81,41,9,132.0,1.0,95,16,19,11,7,5,-2,-1,0,5
34,147,79,40,7,136.0,0.67,105,17,17,10,5,4,1,1,-1,4
35,153,76,38,4,140.0,1.0,95,17,14,8,2,2,-2,-1,-1,3
36,157,74,37,2,144.0,0.67,105,18,12,7,0,1,1,1,-1,2
37,163,71,35,11,148.0,1.0,95,18,9,5,9,6,2,1,-1,1
38,167,78,39,6,152.0,1.0,105,19,16,9,4,3,2,1,1,2
39,171,76,38,4,156.0,1.0,95,19,14,8,2,2,-2,-1,-1,1
40,173,81,41,9,160.0,1.0,105,20,19,11,7,5,5,3,1,2
41,179,81,41,9,164.0,1.0,95,20,19,11,7,5,-2,-1,0,2
42,183,79,40,7,168.0,1.0,105,21,17,10,5,4,1,1,-1,1
43,187,76,38,4,172.0,1.0,95,21,14,8,2,2,-3,-2,-1,0
44,191,74,37,2,176.0,0.67,105,22,12,7,0,1,1,1,-1,-1
45,197,71,35,11,180.0,1.0,95,22,9,5,9,6,2,1,-1,-2
46,201,69,34,9,184.0,0.67,105,23,7,4,7,5,-2,-1,-1,-3
47,207,66,32,6,188.0,1.0,95,23,4,2,4,3,2,1,-1,-4
48,210,81,41,9,192.0,1.0,105,24,19,11,7,5,19,11,1,-3
49,216,81,41,9,196.0,1.0,95,24,19,11,7,5,-2,-1,0,-3
50,220,79,40,7,200.0,1.0,105,25,17,10,5,4,1,1,-1,-4
51,224,76,38,4,204.0,1.0,95,25,14,8,2,2,-2,-1,-1,-5
52,228,74,37,2,208.0,0.67,105,26,12,7,0,1,1,1,-1,-6
53,234,71,35,11,212.0,1.0,95,26,9,5,9,6,2,1,-1,-7
54,238,78,39,6,216.0,0.67,105,27,16,9,4,3,2,1,1,-6
55,243,76,38,4,220.0,2.0,95,27,14,8,2,2,-2,-1,-1,-7
56,246,78,39,6,224.0,1.0,105,28,16,9,4,3,-1,-1,1,-6
57,251,79,40,7,228.0,1.0,95,28,17,10,5,4,1,1,1,-5
58,255,78,39,6,232.0,1.0,105,29,16,9,4,3,-1,-1,-1,-6
59,259,76,38,4,236.0,1.0,95,29,14,8,2,2,-2,-1,-1,-7
60,263,74,37,2,240.0,0.67,105,30,12,7,0,1,1,1,-1,-8
61,268,76,38,4,244.0,1.0,95,30,14,8,2,2,-2,-1,1,-7
62,272,69,34,9,248.0,1.0,105,31,7,4,7,5,-2,-1,-1,-8
63,276,62,30,2,252.0,1.0,95,31,0,0,0,1,-2,-1,-1,-9
64,280,62,30,2,256.0,2.0,105,32,0,0,0,1,1,1,0,-9
65,284,66,32,6,260.0,1.0,95,32,4,2,4,3,4,2,1,-8
66,288,71,35,11,264.0,1.0,105,33,9,5,9,6,-1,-1,1,-7
67,292,67,33,7,268.0,1.0,95,33,5,3,5,4,1,1,-1,-8
68,296,74,37,2,272.0,0.67,105,34,12,7,0,1,1,1,1,-7
69,302,71,35,11,276.0,1.0,95,34,9,5,9,6,2,1,-1,-8
70,306,78,39,6,280.0,1.0,105,35,16,9,4,3,2,1,1,-7
71,311,79,40,7,284.0,1.0,95,35,17,10,5,4,5,3,1,-6
72,315,62,30,2,288.0,2.0,105,36,0,0,0,1,-12,-7,-1,-7
73,319,66,32,6,292.0,1.0,95,36,4,2,4,3,4,2,1,-6
74,323,67,33,7,296.0,1.0,105,37,5,3,5,4,1,1,1,-5
75,329,67,33,7,300.0,1.0,95,37,5,3,5,4,-4,-2,0,-5
76,335,74,37,2,304.0,0.67,105,38,12,7,0,1,3,2,1,-4
77,341,71,35,11,308.0,1.0,95,38,9,5,9,6,2,1,-1,-5
78,345,69,34,9,312.0,0.67,105,39,7,4,7,5,-2,-1,-1,-6
79,351,62,30,2,316.0,0.67,95,39,0,0,0,1,-2,-1,-1,-7
80,356,62,30,2,320.0,2.0,105,40,0,0,0,1,-2,-1,0,-7
81,360,66,32,6,324.0,1.0,95,40,4,2,4,3,4,2,1,-6
82,364,67,33,7,328.0,1.0,105,41,5,3,5,4,1,1,1,-5
83,368,66,32,6,332.0,1.0,95,41,4,2,4,3,-1,-1,-1,-6
84,372,74,37,2,336.0,1.0,105,42,12,7,0,1,1,1,1,-5
85,376,68,33,8,340.0,1.0,95,42,6,3,6,4,-1,-1,-1,-6
86,380,78,39,6,344.0,1.0,105,43,16,9,4,3,4,2,1,-5
87,385,76,38,4,348.0,1.0,95,43,14,8,2,2,2,1,-1,-6
88,389,62,30,2,352.0,1.0,105,44,0,0,0,1,-9,-5,-1,-7
89,393,66,32,6,356.0,1.0,95,44,4,2,4,3,2,1,1,-6
90,397,71,35,11,360.0,1.0,105,45,9,5,9,6,-1,-1,1,-5
91,401,67,33,7,364.0,1.0,95,45,5,3,5,4,1,1,-1,-6
92,405,74,37,2,368.0,1.0,105,46,12,7,0,1,1,1,1,-5
93,411,71,35,11,372.0,1.0,95,46,9,5,9,6,2,1,-1,-6
94,415,69,34,9,376.0,0.67,105,47,7,4,7,5,-2,-1,-1,-7
95,421,66,32,6,380.0,1.0,95,47,4,2,4,3,2,1,-1,-8
96,424,81,41,9,384.0,1.0,105,48,19,11,7,5,19,11,1,-7
97,430,81,41,9,388.0,1.0,95,48,19,11,7,5,-2,-1,0,-7
98,434,79,40,7,392.0,1.0,105,49,17,10,5,4,1,1,-1,-8
99,438,76,38,4,396.0,1.0,95,49,14,8,2,2,-3,-2,-1,-9
100,442,74,37,2,400.0,0.67,105,50,12,7,0,1,1,1,-1,-10
101,448,71,35,11,404.0,1.0,95,50,9,5,9,6,2,1,-1,-11
102,452,78,39,6,408.0,1.0,105,51,16,9,4,3,2,1,1,-10
103,458,76,38,4,412.0,1.0,95,51,14,8,2,2,2,1,-1,-11
104,464,78,39,6,416.0,1.0,105,52,16,9,4,3,-1,-1,1,-10
105,470,81,41,9,420.0,1.0,95,52,19,11,7,5,0,0,1,-9
106,474,79,40,7,424.0,0.67,105,53,17,10,5,4,1,1,-1,-10
107,480,76,38,4,428.0,1.0,95,53,14,8,2,2,-2,-1,-1,-11
108,484,74,37,2,432.0,0.67,105,54,12,7,0,1,1,1,-1,-12
109,490,71,35,11,436.0,1.0,95,54,9,5,9,6,2,1,-1,-13
110,494,69,34,9,440.0,0.67,105,55,7,4,7,5,-2,-1,-1,-14
111,500,66,32,6,444.0,1.0,95,55,4,2,4,3,2,1,-1,-15
112,503,81,41,9,448.0,1.0,105,56,19,11,7,5,19,11,1,-14
113,508,81,41,9,452.0,1.0,95,56,19,11,7,5,-2,-1,0,-14
114,512,79,40,7,456.0,1.0,105,57,17,10,5,4,1,1,-1,-15
115,516,76,38,4,460.0,1.0,95,57,14,8,2,2,-2,-1,-1,-16
116,520,74,37,2,464.0,0.67,105,58,12,7,0,1,1,1,-1,-17
117,526,68,33,8,468.0,1.0,95,58,6,3,6,4,-1,-1,-1,-18
118,530,78,39,6,472.0,1.0,105,59,16,9,4,3,4,2,1,-17
119,534,76,38,4,476.0,1.0,95,59,14,8,2,2,-2,-1,-1,-18
120,537,78,39,6,480.0,1.0,105,60,16,9,4,3,-1,-1,1,-17
121,542,79,40,7,484.0,1.0,95,60,17,10,5,4,1,1,1,-16
122,546,78,39,6,488.0,1.0,105,61,16,9,4,3,-1,-1,-1,-17
123,550,76,38,4,492.0,1.0,95,61,14,8,2,2,-2,-1,-1,-18
124,554,74,37,2,496.0,1.0,105,62,12,7,0,1,1,1,-1,-19
125,558,76,38,4,500.0,1.0,95,62,14,8,2,2,-3,-2,1,-18
126,562,69,34,9,504.0,1.0,105,63,7,4,7,5,-2,-1,-1,-19
127,566,62,30,2,508.0,0.67,95,63,0,0,0,1,-2,-1,-1,-20
128,571,62,30,2,512.0,2.0,105,64,0,0,0,1,-2,-1,0,-20
129,575,66,32,6,516.0,1.0,95,64,4,2,4,3,4,2,1,-19
130,579,67,33,7,520.0,1.0,105,65,5,3,5,4,1,1,1,-18
131,583,61,29,1,524.0,1.0,95,65,-1,-1,11,7,-1,-1,-1,-19
132,587,74,37,2,528.0,1.0,105,66,12,7,0,1,8,5,1,-18
133,591,68,33,8,532.0,1.0,95,66,6,3,6,4,-1,-1,-1,-19
134,595,74,37,2,536.0,2.0,105,67,12,7,0,1,0,0,1,-18
135,598,76,38,4,540.0,1.0,95,67,14,8,2,2,-2,-1,1,-17
136,602,62,30,2,544.0,2.0,105,68,0,0,0,1,-9,-5,-1,-18
137,606,66,32,6,548.0,1.0,95,68,4,2,4,3,4,2,1,-17
138,610,67,33,7,552.0,2.0,105,69,5,3,5,4,1,1,1,-16
139,613,66,32,6,556.0,1.0,95,69,4,2,4,3,-1,-1,-1,-17
140,617,74,37,2,560.0,0.67,105,70,12,7,0,1,1,1,1,-16
141,623,71,35,11,564.0,1.0,95,70,9,5,9,6,2,1,-1,-17
142,627,69,34,9,568.0,0.67,105,71,7,4,7,5,-2,-1,-1,-18
143,633,62,30,2,572.0,0.67,95,71,0,0,0,1,-2,-1,-1,-19
144,638,62,30,2,576.0,8.0,105,72,0,0,0,1,-2,-1,0,-19
