,index,midi_note_num,diatonic_note_num,chromatic_pitch_class,onset,duration,velocity,bar_count,relative_chromatic_pitch,relative_diatonic_pitch,chromatic_scale_degree,diatonic_scale_degree,chromatic_interval,diatonic_interval,parsons_code,parsons_cumsum
0,0,64,31,4,0.0,1.0,105,0,-3,-2,9,6,0,0,0,0
1,3,69,34,9,3.0,1.0,95,0,2,1,2,2,0,0,1,1
2,6,71,35,11,6.0,1.0,105,1,4,2,4,3,2,1,1,2
3,9,69,34,9,9.0,2.0,95,1,2,1,2,2,0,0,-1,1
4,11,64,31,4,12.0,1.0,105,2,-3,-2,9,6,-3,-2,-1,0
5,14,69,34,9,15.0,1.0,95,2,2,1,2,2,0,0,1,1
6,17,71,35,11,18.0,0.5,105,3,4,2,4,3,-1,-1,1,2
7,21,71,35,11,21.0,1.0,95,3,4,2,4,3,-1,-1,0,2
8,24,64,31,4,24.0,1.0,105,4,-3,-2,9,6,-3,-2,-1,1
9,27,69,34,9,27.0,1.0,95,4,2,1,2,2,0,0,1,2
10,30,71,35,11,30.0,1.0,105,5,4,2,4,3,2,1,1,3
11,33,69,34,9,33.0,1.0,95,5,2,1,2,2,0,0,-1,2
12,36,79,40,7,36.0,1.0,105,6,12,7,0,1,1,1,1,3
13,39,79,40,7,39.0,1.0,95,6,12,7,0,1,0,0,0,3
14,42,74,37,2,42.0,1.0,105,7,7,4,7,5,-2,-1,-1,2
15,45,67,33,7,45.0,1.0,95,7,0,0,0,1,0,0,-1,1
16,48,64,31,4,48.0,1.0,105,8,-3,-2,9,6,-7,-4,-1,0
17,51,69,34,9,51.0,1.0,95,8,2,1,2,2,0,0,1,1
18,54,71,35,11,54.0,1.0,105,9,4,2,4,3,2,1,1,2
19,57,69,34,9,57.0,2.0,95,9,2,1,2,2,0,0,-1,1
20,59,64,31,4,60.0,1.0,105,10,-3,-2,9,6,-3,-2,-1,0
21,62,69,34,9,63.0,1.0,95,10,2,1,2,2,0,0,1,1
22,65,71,35,11,66.0,0.5,105,11,4,2,4,3,-1,-1,1,2
23,69,71,35,11,69.0,1.0,95,11,4,2,4,3,-1,-1,0,2
24,72,64,31,4,72.0,1.0,105,12,-3,-2,9,6,-3,-2,-1,1
25,75,69,34,9,75.0,1.0,95,12,2,1,2,2,0,0,1,2
26,78,71,35,11,78.0,1.0,105,13,4,2,4,3,2,1,1,3
27,81,69,34,9,81.0,1.0,95,13,2,1,2,2,0,0,-1,2
28,84,79,40,7,84.0,1.0,105,14,12,7,0,1,1,1,1,3
29,87,79,40,7,87.0,1.0,95,14,12,7,0,1,0,0,0,3
30,90,74,37,2,90.0,1.0,105,15,7,4,7,5,-2,-1,-1,2
31,93,67,33,7,93.0,1.0,95,15,0,0,0,1,0,0,-1,1
32,96,69,34,9,96.0,1.0,105,16,2,1,2,2,-2,-1,1,2
33,99,79,40,7,99.0,2.0,95,16,12,7,0,1,10,6,1,3
34,101,78,39,6,102.0,1.0,105,17,11,6,11,7,9,5,-1,2
35,104,76,38,4,105.0,1.0,95,17,9,5,9,6,2,1,-1,1
36,107,69,34,9,108.0,1.0,105,18,2,1,2,2,-7,-4,-1,0
37,110,79,40,7,111.0,2.0,95,18,12,7,0,1,10,6,1,1
38,112,74,37,2,114.0,1.0,105,19,7,4,7,5,-2,-1,-1,0
39,115,67,33,7,117.0,1.0,95,19,0,0,0,1,0,0,-1,-1
40,118,69,34,9,120.0,1.0,105,20,2,1,2,2,-2,-1,1,0
41,121,79,40,7,123.0,2.0,95,20,12,7,0,1,10,6,1,1
42,123,78,39,6,126.0,1.0,105,21,11,6,11,7,9,5,-1,0
43,126,76,38,4,129.0,1.0,95,21,9,5,9,6,2,1,-1,-1
44,129,79,40,7,132.0,1.0,105,22,12,7,0,1,1,1,1,0
45,132,79,40,7,135.0,1.0,95,22,12,7,0,1,0,0,0,0
46,135,74,37,2,138.0,1.0,105,23,7,4,7,5,-2,-1,-1,-1
47,138,67,33,7,141.0,1.0,95,23,0,0,0,1,0,0,-1,-2
48,141,69,34,9,144.0,1.0,105,24,2,1,2,2,-2,-1,1,-1
49,144,79,40,7,147.0,2.0,95,24,12,7,0,1,10,6,1,0
50,146,78,39,6,150.0,1.0,105,25,11,6,11,7,9,5,-1,-1
51,149,76,38,4,153.0,1.0,95,25,9,5,9,6,2,1,-1,-2
52,152,69,34,9,156.0,1.0,105,26,2,1,2,2,-7,-4,-1,-3
53,155,79,40,7,159.0,2.0,95,26,12,7,0,1,10,6,1,-2
54,157,74,37,2,162.0,1.0,105,27,7,4,7,5,-2,-1,-1,-3
55,160,67,33,7,165.0,1.0,95,27,0,0,0,1,0,0,-1,-4
56,163,69,34,9,168.0,1.0,105,28,2,1,2,2,-2,-1,1,-3
57,166,79,40,7,171.0,2.0,95,28,12,7,0,1,10,6,1,-2
58,168,78,39,6,174.0,1.0,105,29,11,6,11,7,9,5,-1,-3
59,171,76,38,4,177.0,1.0,95,29,9,5,9,6,2,1,-1,-4
60,174,79,40,7,180.0,1.0,105,30,12,7,0,1,1,1,1,-3
61,177,79,40,7,183.0,1.0,95,30,12,7,0,1,0,0,0,-3
62,180,74,37,2,186.0,1.0,105,31,7,4,7,5,-2,-1,-1,-4
63,183,67,33,7,189.0,1.0,95,31,0,0,0,1,0,0,-1,-5
64,186,57,27,9,192.0,2.0,105,32,-10,-6,2,2,-14,-8,-1,-6
65,188,69,34,9,195.0,1.0,95,32,2,1,2,2,0,0,1,-5
66,191,71,35,11,198.0,2.0,105,33,4,2,4,3,-1,-1,1,-4
67,193,69,34,9,201.0,2.0,95,33,2,1,2,2,0,0,-1,-5
68,195,64,31,4,204.0,2.0,105,34,-3,-2,9,6,0,0,-1,-6
69,197,69,34,9,207.0,1.0,95,34,2,1,2,2,0,0,1,-5
70,200,71,35,11,210.0,0.5,105,35,4,2,4,3,-1,-1,1,-4
71,204,71,35,11,213.0,1.0,95,35,4,2,4,3,-1,-1,0,-4
72,207,64,31,4,216.0,2.0,105,36,-3,-2,9,6,-3,-2,-1,-5
73,209,69,34,9,219.0,1.0,95,36,2,1,2,2,0,0,1,-4
74,212,71,35,11,222.0,2.0,105,37,4,2,4,3,-1,-1,1,-3
75,214,69,34,9,225.0,1.0,95,37,2,1,2,2,0,0,-1,-4
76,217,67,33,7,228.0,1.0,105,38,0,0,0,1,1,1,-1,-5
77,220,67,33,7,231.0,1.0,95,38,0,0,0,1,0,0,0,-5
78,223,62,30,2,234.0,1.0,105,39,-5,-3,7,5,-2,-1,-1,-6
79,226,55,26,7,237.0,1.0,95,39,-12,-7,0,1,0,0,-1,-7
80,229,57,27,9,240.0,2.0,105,40,-10,-6,2,2,-2,-1,1,-6
81,231,69,34,9,243.0,1.0,95,40,2,1,2,2,0,0,1,-5
82,234,71,35,11,246.0,2.0,105,41,4,2,4,3,-1,-1,1,-4
83,236,69,34,9,249.0,2.0,95,41,2,1,2,2,0,0,-1,-5
84,238,64,31,4,252.0,2.0,105,42,-3,-2,9,6,0,0,-1,-6
85,240,69,34,9,255.0,1.0,95,42,2,1,2,2,0,0,1,-5
86,243,71,35,11,258.0,0.5,105,43,4,2,4,3,-1,-1,1,-4
87,247,71,35,11,261.0,1.0,95,43,4,2,4,3,-1,-1,0,-4
88,250,64,31,4,264.0,2.0,105,44,-3,-2,9,6,-3,-2,-1,-5
89,252,69,34,9,267.0,1.0,95,44,2,1,2,2,0,0,1,-4
90,255,71,35,11,270.0,2.0,105,45,4,2,4,3,-1,-1,1,-3
91,257,69,34,9,273.0,1.0,95,45,2,1,2,2,0,0,-1,-4
92,260,67,33,7,276.0,1.0,105,46,0,0,0,1,1,1,-1,-5
93,263,67,33,7,279.0,1.0,95,46,0,0,0,1,0,0,0,-5
94,266,62,30,2,282.0,1.0,105,47,-5,-3,7,5,-2,-1,-1,-6
95,269,55,26,7,285.0,1.0,95,47,-12,-7,0,1,0,0,-1,-7
96,272,69,34,9,288.0,1.0,105,48,2,1,2,2,10,6,1,-6
97,275,79,40,7,291.0,2.0,95,48,12,7,0,1,10,6,1,-5
98,277,78,39,6,294.0,1.0,105,49,11,6,11,7,9,5,-1,-6
99,280,76,38,4,297.0,1.0,95,49,9,5,9,6,2,1,-1,-7
100,283,69,34,9,300.0,1.0,105,50,2,1,2,2,-7,-4,-1,-8
101,286,79,40,7,303.0,2.0,95,50,12,7,0,1,10,6,1,-7
102,288,74,37,2,306.0,1.0,105,51,7,4,7,5,-2,-1,-1,-8
103,291,67,33,7,309.0,1.0,95,51,0,0,0,1,0,0,-1,-9
104,294,69,34,9,312.0,1.0,105,52,2,1,2,2,-2,-1,1,-8
105,297,79,40,7,315.0,2.0,95,52,12,7,0,1,10,6,1,-7
106,299,78,39,6,318.0,1.0,105,53,11,6,11,7,9,5,-1,-8
107,302,76,38,4,321.0,1.0,95,53,9,5,9,6,2,1,-1,-9
108,305,79,40,7,324.0,1.0,105,54,12,7,0,1,1,1,1,-8
109,308,79,40,7,327.0,1.0,95,54,12,7,0,1,0,0,0,-8
110,311,74,37,2,330.0,1.0,105,55,7,4,7,5,-2,-1,-1,-9
111,314,67,33,7,333.0,1.0,95,55,0,0,0,1,0,0,-1,-10
112,317,69,34,9,336.0,1.0,105,56,2,1,2,2,-2,-1,1,-9
113,320,79,40,7,339.0,2.0,95,56,12,7,0,1,10,6,1,-8
114,322,78,39,6,342.0,1.0,105,57,11,6,11,7,9,5,-1,-9
115,325,76,38,4,345.0,1.0,95,57,9,5,9,6,2,1,-1,-10
116,328,69,34,9,348.0,1.0,105,58,2,1,2,2,-7,-4,-1,-11
117,331,79,40,7,351.0,2.0,95,58,12,7,0,1,10,6,1,-10
118,333,74,37,2,354.0,1.0,105,59,7,4,7,5,-2,-1,-1,-11
119,336,67,33,7,357.0,1.0,95,59,0,0,0,1,0,0,-1,-12
120,339,69,34,9,360.0,1.0,105,60,2,1,2,2,-2,-1,1,-11
121,342,79,40,7,363.0,2.0,95,60,12,7,0,1,10,6,1,-10
122,344,78,39,6,366.0,1.0,105,61,11,6,11,7,9,5,-1,-11
123,347,76,38,4,369.0,1.0,95,61,9,5,9,6,2,1,-1,-12
124,350,79,40,7,372.0,1.0,105,62,12,7,0,1,1,1,1,-11
125,353,79,40,7,375.0,1.0,95,62,12,7,0,1,0,0,0,-11
126,356,74,37,2,378.0,1.0,105,63,7,4,7,5,-2,-1,-1,-12
127,359,67,33,7,381.0,1.0,95,63,0,0,0,1,0,0,-1,-13
