,index,midi_note_num,diatonic_note_num,chromatic_pitch_class,onset,duration,velocity,bar_count,relative_chromatic_pitch,relative_diatonic_pitch,chromatic_scale_degree,diatonic_scale_degree,chromatic_interval,diatonic_interval,parsons_code,parsons_cumsum
0,0,66,32,6,0.0,3.0,105,0,2,1,2,2,0,0,0,0
1,1,69,34,9,3.0,1.0,105,1,5,3,5,4,3,2,1,1
2,3,64,31,4,8.0,3.0,105,2,0,0,0,1,-7,-4,-1,0
3,5,64,31,4,12.0,4.0,95,2,0,0,0,1,-2,-1,0,0
4,6,69,34,9,16.0,3.0,105,3,5,3,5,4,5,3,1,1
5,8,66,32,6,20.0,3.0,105,4,2,1,2,2,-1,-1,-1,0
6,10,64,31,4,24.0,3.0,95,4,0,0,0,1,-3,-2,-1,-1
7,11,66,32,6,27.0,1.0,105,5,2,1,2,2,2,1,1,0
8,13,74,37,2,32.0,3.0,105,6,10,6,10,7,12,7,1,1
9,15,78,39,6,36.0,3.0,95,6,14,8,2,2,2,1,1,2
10,16,76,38,4,39.0,1.0,105,7,12,7,0,1,-2,-1,-1,1
11,19,74,37,2,44.0,1.0,105,8,10,6,10,7,3,2,-1,0
12,21,69,34,9,48.0,2.0,95,8,5,3,5,4,-2,-1,-1,-1
13,22,66,32,6,50.0,2.0,105,9,2,1,2,2,-3,-2,-1,-2
14,24,64,31,4,56.0,3.0,105,10,0,0,0,1,-7,-4,-1,-3
15,26,64,31,4,60.0,4.0,95,10,0,0,0,1,-2,-1,0,-3
16,27,66,32,6,64.0,2.0,105,11,2,1,2,2,2,1,1,-2
17,29,71,35,11,68.0,4.0,105,12,7,4,7,5,2,1,1,-1
18,30,64,31,4,72.0,3.0,95,12,0,0,0,1,-7,-4,-1,-2
19,31,66,32,6,75.0,1.0,105,13,2,1,2,2,2,1,1,-1
20,33,69,34,9,80.0,3.0,105,14,5,3,5,4,5,3,1,0
21,35,66,32,6,84.0,3.0,95,14,2,1,2,2,-1,-1,-1,-1
22,36,67,33,7,87.0,1.0,105,15,3,2,3,3,1,1,1,0
23,38,66,32,6,91.0,1.0,95,15,2,1,2,2,2,1,-1,-1
24,39,62,30,2,92.0,4.0,105,16,-2,-1,10,7,-4,-2,-1,-2
25,40,74,37,2,96.0,3.0,95,16,10,6,10,7,12,7,1,-1
26,41,76,38,4,99.0,1.0,105,17,12,7,0,1,2,1,1,0
27,43,76,38,4,103.0,1.0,95,17,12,7,0,1,-2,-1,0,0
28,44,74,37,2,104.0,2.0,105,18,10,6,10,7,-2,-1,-1,-1
29,46,74,37,2,108.0,1.0,95,18,10,6,10,7,3,2,0,-1
30,48,69,34,9,112.0,2.0,105,19,5,3,5,4,-2,-1,-1,-2
31,50,71,35,11,116.0,4.0,105,20,7,4,7,5,5,3,1,-1
32,51,64,31,4,120.0,3.0,95,20,0,0,0,1,-7,-4,-1,-2
33,52,66,32,6,123.0,1.0,105,21,2,1,2,2,2,1,1,-1
34,54,66,32,6,128.0,3.0,105,22,2,1,2,2,2,1,0,-1
35,56,62,30,2,132.0,4.0,95,22,-2,-1,10,7,-2,-1,-1,-2
36,57,74,37,2,136.0,3.0,105,23,10,6,10,7,12,7,1,-1
37,59,74,37,2,140.0,6.0,105,24,10,6,10,7,-2,-1,0,-1
38,60,76,38,4,146.0,2.0,105,25,12,7,0,1,2,1,1,0
39,63,74,37,2,152.0,1.0,105,26,10,6,10,7,-2,-1,-1,-1
40,66,69,34,9,156.0,6.0,95,26,5,3,5,4,-2,-1,-1,-2
41,67,74,37,2,162.0,1.0,105,27,10,6,10,7,5,3,1,-1
42,69,71,35,11,164.0,4.0,105,28,7,4,7,5,2,1,-1,-2
43,70,76,38,4,168.0,4.0,95,28,12,7,0,1,5,3,1,-1
44,71,76,38,4,172.0,6.0,105,29,12,7,0,1,0,0,0,-1
45,72,78,39,6,178.0,2.0,105,30,14,8,2,2,2,1,1,0
46,74,78,39,6,183.0,1.0,105,31,14,8,2,2,-1,-1,0,0
47,77,69,34,9,187.0,1.0,95,31,5,3,5,4,-5,-3,-1,-1
48,78,71,35,11,188.0,4.0,105,32,7,4,7,5,2,1,1,0
49,79,74,37,2,192.0,2.0,95,32,10,6,10,7,3,2,1,1
50,80,76,38,4,194.0,2.0,105,33,12,7,0,1,2,1,1,2
51,82,79,40,7,200.0,2.0,105,34,15,9,3,3,1,1,1,3
52,84,76,38,4,204.0,4.0,95,34,12,7,0,1,-2,-1,-1,2
53,85,78,39,6,208.0,2.0,105,35,14,8,2,2,2,1,1,3
54,87,74,37,2,212.0,3.0,105,36,10,6,10,7,-2,-1,-1,2
55,89,74,37,2,216.0,1.0,95,36,10,6,10,7,-2,-1,0,2
56,91,71,35,11,218.0,2.0,105,37,7,4,7,5,2,1,-1,1
57,93,74,37,2,224.0,2.0,105,38,10,6,10,7,5,3,1,2
58,95,78,39,6,228.0,3.0,95,38,14,8,2,2,2,1,1,3
59,96,76,38,4,231.0,1.0,105,39,12,7,0,1,-2,-1,-1,2
60,99,74,37,2,236.0,1.0,105,40,10,6,10,7,3,2,-1,1
61,101,69,34,9,240.0,2.0,95,40,5,3,5,4,-2,-1,-1,0
62,102,66,32,6,242.0,2.0,105,41,2,1,2,2,-3,-2,-1,-1
63,104,64,31,4,248.0,3.0,105,42,0,0,0,1,-7,-4,-1,-2
64,106,64,31,4,252.0,12.0,95,42,0,0,0,1,-2,-1,0,-2
65,107,66,32,6,264.0,2.0,105,43,2,1,2,2,2,1,1,-1
66,108,69,34,9,266.0,2.0,105,44,5,3,5,4,3,2,1,0
67,110,64,31,4,272.0,3.0,105,45,0,0,0,1,-7,-4,-1,-1
68,112,64,31,4,276.0,4.0,95,45,0,0,0,1,-2,-1,0,-1
69,113,69,34,9,280.0,3.0,105,46,5,3,5,4,5,3,1,0
70,115,66,32,6,284.0,3.0,105,47,2,1,2,2,-1,-1,-1,-1
71,117,64,31,4,288.0,3.0,95,47,0,0,0,1,-3,-2,-1,-2
72,118,66,32,6,291.0,1.0,105,48,2,1,2,2,2,1,1,-1
73,120,74,37,2,296.0,2.0,105,49,10,6,10,7,12,7,1,0
74,122,78,39,6,300.0,3.0,95,49,14,8,2,2,2,1,1,1
75,123,76,38,4,303.0,1.0,105,50,12,7,0,1,-2,-1,-1,0
76,126,74,37,2,308.0,1.0,105,51,10,6,10,7,3,2,-1,-1
77,128,69,34,9,312.0,2.0,95,51,5,3,5,4,-2,-1,-1,-2
78,129,66,32,6,314.0,2.0,105,52,2,1,2,2,-3,-2,-1,-3
79,131,64,31,4,320.0,3.0,105,53,0,0,0,1,-7,-4,-1,-4
80,133,64,31,4,324.0,4.0,95,53,0,0,0,1,-2,-1,0,-4
81,134,66,32,6,328.0,2.0,105,54,2,1,2,2,2,1,1,-3
82,136,71,35,11,332.0,4.0,105,55,7,4,7,5,2,1,1,-2
83,137,64,31,4,336.0,3.0,95,55,0,0,0,1,-7,-4,-1,-3
84,138,66,32,6,339.0,1.0,105,56,2,1,2,2,2,1,1,-2
85,140,69,34,9,344.0,3.0,105,57,5,3,5,4,5,3,1,-1
86,142,66,32,6,348.0,3.0,95,57,2,1,2,2,-1,-1,-1,-2
87,143,67,33,7,351.0,1.0,105,58,3,2,3,3,1,1,1,-1
88,145,66,32,6,355.0,1.0,95,58,2,1,2,2,2,1,-1,-2
89,146,62,30,2,356.0,4.0,105,59,-2,-1,10,7,-4,-2,-1,-3
90,147,74,37,2,360.0,2.0,95,59,10,6,10,7,12,7,1,-2
91,148,76,38,4,362.0,2.0,105,60,12,7,0,1,2,1,1,-1
92,151,74,37,2,368.0,2.0,105,61,10,6,10,7,-2,-1,-1,-2
93,153,74,37,2,372.0,1.0,95,61,10,6,10,7,3,2,0,-2
94,155,69,34,9,376.0,2.0,105,62,5,3,5,4,-2,-1,-1,-3
95,157,71,35,11,380.0,4.0,105,63,7,4,7,5,5,3,1,-2
96,158,64,31,4,384.0,3.0,95,63,0,0,0,1,-7,-4,-1,-3
97,159,66,32,6,387.0,1.0,105,64,2,1,2,2,2,1,1,-2
98,161,66,32,6,392.0,3.0,105,65,2,1,2,2,2,1,0,-2
99,163,62,30,2,396.0,4.0,95,65,-2,-1,10,7,-2,-1,-1,-3
100,164,74,37,2,400.0,3.0,105,66,10,6,10,7,12,7,1,-2
101,166,74,37,2,404.0,6.0,105,67,10,6,10,7,-2,-1,0,-2
102,167,76,38,4,410.0,2.0,105,68,12,7,0,1,2,1,1,-1
103,170,74,37,2,416.0,1.0,105,69,10,6,10,7,-2,-1,-1,-2
104,173,69,34,9,420.0,6.0,95,69,5,3,5,4,-2,-1,-1,-3
105,174,74,37,2,426.0,1.0,105,70,10,6,10,7,5,3,1,-2
106,176,71,35,11,428.0,4.0,105,71,7,4,7,5,2,1,-1,-3
107,177,76,38,4,432.0,4.0,95,71,12,7,0,1,5,3,1,-2
108,178,76,38,4,436.0,6.0,105,72,12,7,0,1,0,0,0,-2
109,179,78,39,6,442.0,2.0,105,73,14,8,2,2,2,1,1,-1
110,181,78,39,6,447.0,1.0,105,74,14,8,2,2,-1,-1,0,-1
111,184,69,34,9,451.0,1.0,95,74,5,3,5,4,-5,-3,-1,-2
112,185,71,35,11,452.0,4.0,105,75,7,4,7,5,2,1,1,-1
113,186,74,37,2,456.0,2.0,95,75,10,6,10,7,3,2,1,0
114,187,76,38,4,458.0,2.0,105,76,12,7,0,1,2,1,1,1
115,189,79,40,7,464.0,2.0,105,77,15,9,3,3,1,1,1,2
116,191,76,38,4,468.0,4.0,95,77,12,7,0,1,-2,-1,-1,1
117,192,78,39,6,472.0,2.0,105,78,14,8,2,2,2,1,1,2
118,194,74,37,2,476.0,3.0,105,79,10,6,10,7,-2,-1,-1,1
119,196,74,37,2,480.0,1.0,95,79,10,6,10,7,-2,-1,0,1
120,198,71,35,11,482.0,2.0,105,80,7,4,7,5,2,1,-1,0
121,200,74,37,2,488.0,2.0,105,81,10,6,10,7,5,3,1,1
122,202,78,39,6,492.0,3.0,95,81,14,8,2,2,2,1,1,2
123,203,76,38,4,495.0,1.0,105,82,12,7,0,1,-2,-1,-1,1
124,206,74,37,2,500.0,1.0,105,83,10,6,10,7,3,2,-1,0
125,208,69,34,9,504.0,2.0,95,83,5,3,5,4,-2,-1,-1,-1
126,209,66,32,6,506.0,2.0,105,84,2,1,2,2,-3,-2,-1,-2
127,211,64,31,4,512.0,3.0,105,85,0,0,0,1,-7,-4,-1,-3
128,213,64,31,4,516.0,8.0,95,85,0,0,0,1,-2,-1,0,-3
