,index,midi_note_num,diatonic_note_num,chromatic_pitch_class,onset,duration,velocity,bar_count,relative_chromatic_pitch,relative_diatonic_pitch,chromatic_scale_degree,diatonic_scale_degree,chromatic_interval,diatonic_interval,parsons_code,parsons_cumsum
0,2,72,36,0,2.0,3.0,105,0,5,3,5,4,0,0,0,0
1,4,72,36,0,6.0,1.0,95,0,5,3,5,4,1,1,0,0
2,8,72,36,0,10.0,1.0,105,1,5,3,5,4,-2,-1,0,0
3,12,71,35,11,14.0,1.0,95,1,4,2,4,3,-1,-1,-1,-1
4,15,72,36,0,18.0,1.0,105,2,5,3,5,4,5,3,1,0
5,19,72,36,0,22.0,1.0,95,2,5,3,5,4,1,1,0,0
6,23,72,36,0,26.0,1.0,105,3,5,3,5,4,-2,-1,0,0
7,27,64,31,4,30.0,1.0,95,3,-3,-2,9,6,-3,-2,-1,-1
8,31,72,36,0,34.0,3.0,105,4,5,3,5,4,1,1,1,0
9,33,72,36,0,38.0,1.0,95,4,5,3,5,4,1,1,0,0
10,37,79,40,7,42.0,1.0,105,5,12,7,0,1,1,1,1,1
11,41,71,35,11,46.0,1.0,95,5,4,2,4,3,-1,-1,-1,0
12,44,64,31,4,50.0,1.0,105,6,-3,-2,9,6,-3,-2,-1,-1
13,48,76,38,4,54.0,1.0,95,6,9,5,9,6,2,1,1,0
14,52,79,40,7,58.0,1.0,105,7,12,7,0,1,1,1,1,1
15,56,64,31,4,62.0,1.0,95,7,-3,-2,9,6,-8,-5,-1,0
16,59,72,36,0,66.0,3.0,105,8,5,3,5,4,3,2,1,1
17,61,72,36,0,70.0,1.0,95,8,5,3,5,4,1,1,0,1
18,65,72,36,0,74.0,1.0,105,9,5,3,5,4,-2,-1,0,1
19,69,71,35,11,78.0,1.0,95,9,4,2,4,3,-1,-1,-1,0
20,72,72,36,0,82.0,1.0,105,10,5,3,5,4,5,3,1,1
21,76,72,36,0,86.0,1.0,95,10,5,3,5,4,1,1,0,1
22,80,72,36,0,90.0,1.0,105,11,5,3,5,4,-2,-1,0,1
23,84,64,31,4,94.0,1.0,95,11,-3,-2,9,6,-3,-2,-1,0
24,88,72,36,0,98.0,3.0,105,12,5,3,5,4,1,1,1,1
25,90,72,36,0,102.0,1.0,95,12,5,3,5,4,1,1,0,1
26,94,79,40,7,106.0,1.0,105,13,12,7,0,1,1,1,1,2
27,98,71,35,11,110.0,1.0,95,13,4,2,4,3,-1,-1,-1,1
28,101,64,31,4,114.0,1.0,105,14,-3,-2,9,6,-3,-2,-1,0
29,105,76,38,4,118.0,1.0,95,14,9,5,9,6,2,1,1,1
30,109,79,40,7,122.0,1.0,105,15,12,7,0,1,1,1,1,2
31,113,64,31,4,126.0,1.0,95,15,-3,-2,9,6,-8,-5,-1,1
32,116,76,38,4,130.0,1.0,105,16,9,5,9,6,7,4,1,2
33,120,81,41,9,134.0,1.0,95,16,14,8,2,2,2,1,1,3
34,124,72,36,0,138.0,3.0,105,17,5,3,5,4,-2,-1,-1,2
35,126,71,35,11,142.0,1.0,95,17,4,2,4,3,-3,-2,-1,1
36,129,76,38,4,146.0,1.0,105,18,9,5,9,6,9,5,1,2
37,133,81,41,9,150.0,1.0,95,18,14,8,2,2,2,1,1,3
38,137,76,38,4,154.0,1.0,105,19,9,5,9,6,2,1,-1,2
39,141,81,41,9,158.0,3.0,95,19,14,8,2,2,2,1,1,3
40,143,84,43,0,162.0,3.0,105,20,17,10,5,4,1,1,1,4
41,145,81,41,9,166.0,1.0,95,20,14,8,2,2,-2,-1,-1,3
42,148,79,40,7,170.0,1.0,105,21,12,7,0,1,3,2,-1,2
43,152,71,35,11,174.0,1.0,95,21,4,2,4,3,-8,-5,-1,1
44,155,64,31,4,178.0,1.0,105,22,-3,-2,9,6,-5,-3,-1,0
45,159,76,38,4,182.0,1.0,95,22,9,5,9,6,2,1,1,1
46,163,79,40,7,186.0,1.0,105,23,12,7,0,1,1,1,1,2
47,167,76,38,4,190.0,1.0,95,23,9,5,9,6,4,2,-1,1
48,170,76,38,4,194.0,1.0,105,24,9,5,9,6,7,4,0,1
49,174,81,41,9,198.0,1.0,95,24,14,8,2,2,2,1,1,2
50,178,72,36,0,202.0,3.0,105,25,5,3,5,4,-2,-1,-1,1
51,180,71,35,11,206.0,1.0,95,25,4,2,4,3,-3,-2,-1,0
52,183,76,38,4,210.0,1.0,105,26,9,5,9,6,9,5,1,1
53,187,81,41,9,214.0,1.0,95,26,14,8,2,2,2,1,1,2
54,191,76,38,4,218.0,1.0,105,27,9,5,9,6,2,1,-1,1
55,195,81,41,9,222.0,3.0,95,27,14,8,2,2,2,1,1,2
56,197,84,43,0,226.0,3.0,105,28,17,10,5,4,1,1,1,3
57,199,81,41,9,230.0,1.0,95,28,14,8,2,2,-2,-1,-1,2
58,202,79,40,7,234.0,1.0,105,29,12,7,0,1,3,2,-1,1
59,206,71,35,11,238.0,1.0,95,29,4,2,4,3,-8,-5,-1,0
60,209,64,31,4,242.0,1.0,105,30,-3,-2,9,6,-5,-3,-1,-1
61,213,76,38,4,246.0,1.0,95,30,9,5,9,6,2,1,1,0
62,217,79,40,7,250.0,1.0,105,31,12,7,0,1,1,1,1,1
63,221,76,38,4,254.0,1.0,95,31,9,5,9,6,4,2,-1,0
64,224,72,36,0,258.0,3.0,105,32,5,3,5,4,3,2,-1,-1
65,226,72,36,0,262.0,1.0,95,32,5,3,5,4,1,1,0,-1
66,230,72,36,0,266.0,1.0,105,33,5,3,5,4,-2,-1,0,-1
67,234,71,35,11,270.0,1.0,95,33,4,2,4,3,-1,-1,-1,-2
68,237,72,36,0,274.0,2.0,105,34,5,3,5,4,3,2,1,-1
69,240,72,36,0,278.0,1.0,95,34,5,3,5,4,1,1,0,-1
70,244,72,36,0,282.0,1.0,105,35,5,3,5,4,-2,-1,0,-1
71,248,64,31,4,286.0,1.0,95,35,-3,-2,9,6,-3,-2,-1,-2
72,252,72,36,0,290.0,3.0,105,36,5,3,5,4,1,1,1,-1
73,254,72,36,0,294.0,1.0,95,36,5,3,5,4,1,1,0,-1
74,258,79,40,7,298.0,1.0,105,37,12,7,0,1,1,1,1,0
75,262,71,35,11,302.0,1.0,95,37,4,2,4,3,-1,-1,-1,-1
76,265,64,31,4,306.0,1.0,105,38,-3,-2,9,6,-3,-2,-1,-2
77,269,76,38,4,310.0,1.0,95,38,9,5,9,6,2,1,1,-1
78,273,79,40,7,314.0,1.0,105,39,12,7,0,1,1,1,1,0
79,277,76,38,4,318.0,1.0,95,39,9,5,9,6,4,2,-1,-1
80,280,72,36,0,322.0,3.0,105,40,5,3,5,4,3,2,-1,-2
81,282,72,36,0,326.0,1.0,95,40,5,3,5,4,1,1,0,-2
82,286,72,36,0,330.0,1.0,105,41,5,3,5,4,-2,-1,0,-2
83,290,71,35,11,334.0,1.0,95,41,4,2,4,3,-1,-1,-1,-3
84,293,72,36,0,338.0,2.0,105,42,5,3,5,4,3,2,1,-2
85,296,72,36,0,342.0,1.0,95,42,5,3,5,4,1,1,0,-2
86,300,72,36,0,346.0,1.0,105,43,5,3,5,4,-2,-1,0,-2
87,304,64,31,4,350.0,1.0,95,43,-3,-2,9,6,-3,-2,-1,-3
88,308,72,36,0,354.0,3.0,105,44,5,3,5,4,1,1,1,-2
89,310,72,36,0,358.0,1.0,95,44,5,3,5,4,1,1,0,-2
90,314,79,40,7,362.0,1.0,105,45,12,7,0,1,1,1,1,-1
91,318,71,35,11,366.0,1.0,95,45,4,2,4,3,-1,-1,-1,-2
92,321,64,31,4,370.0,1.0,105,46,-3,-2,9,6,-3,-2,-1,-3
93,325,76,38,4,374.0,1.0,95,46,9,5,9,6,2,1,1,-2
94,329,79,40,7,378.0,1.0,105,47,12,7,0,1,1,1,1,-1
95,333,76,38,4,382.0,1.0,95,47,9,5,9,6,4,2,-1,-2
96,336,76,38,4,386.0,1.0,105,48,9,5,9,6,7,4,0,-2
97,340,81,41,9,390.0,1.0,95,48,14,8,2,2,2,1,1,-1
98,344,72,36,0,394.0,3.0,105,49,5,3,5,4,-2,-1,-1,-2
99,346,71,35,11,398.0,1.0,95,49,4,2,4,3,-3,-2,-1,-3
100,349,76,38,4,402.0,1.0,105,50,9,5,9,6,9,5,1,-2
101,353,81,41,9,406.0,1.0,95,50,14,8,2,2,2,1,1,-1
102,357,76,38,4,410.0,1.0,105,51,9,5,9,6,2,1,-1,-2
103,361,81,41,9,414.0,3.0,95,51,14,8,2,2,2,1,1,-1
104,363,83,42,11,418.0,1.0,105,52,16,9,4,3,0,0,1,0
105,367,81,41,9,422.0,1.0,95,52,14,8,2,2,2,1,-1,-1
106,371,72,36,0,426.0,3.0,105,53,5,3,5,4,-2,-1,-1,-2
107,373,71,35,11,430.0,1.0,95,53,4,2,4,3,-3,-2,-1,-3
108,376,64,31,4,434.0,1.0,105,54,-3,-2,9,6,-3,-2,-1,-4
109,380,76,38,4,438.0,1.0,95,54,9,5,9,6,2,1,1,-3
110,384,79,40,7,442.0,1.0,105,55,12,7,0,1,1,1,1,-2
111,388,64,31,4,446.0,1.0,95,55,-3,-2,9,6,-8,-5,-1,-3
112,391,76,38,4,450.0,1.0,105,56,9,5,9,6,7,4,1,-2
113,395,81,41,9,454.0,1.0,95,56,14,8,2,2,2,1,1,-1
114,399,72,36,0,458.0,3.0,105,57,5,3,5,4,-2,-1,-1,-2
115,401,71,35,11,462.0,1.0,95,57,4,2,4,3,-3,-2,-1,-3
116,404,76,38,4,466.0,1.0,105,58,9,5,9,6,9,5,1,-2
117,408,81,41,9,470.0,1.0,95,58,14,8,2,2,2,1,1,-1
118,412,76,38,4,474.0,1.0,105,59,9,5,9,6,2,1,-1,-2
119,416,81,41,9,478.0,3.0,95,59,14,8,2,2,2,1,1,-1
120,418,83,42,11,482.0,1.0,105,60,16,9,4,3,0,0,1,0
121,422,81,41,9,486.0,1.0,95,60,14,8,2,2,2,1,-1,-1
122,426,72,36,0,490.0,3.0,105,61,5,3,5,4,-2,-1,-1,-2
123,428,71,35,11,494.0,1.0,95,61,4,2,4,3,-3,-2,-1,-3
124,431,64,31,4,498.0,1.0,105,62,-3,-2,9,6,-3,-2,-1,-4
125,435,76,38,4,502.0,1.0,95,62,9,5,9,6,2,1,1,-3
126,439,79,40,7,506.0,1.0,105,63,12,7,0,1,1,1,1,-2
127,443,64,31,4,510.0,1.0,95,63,-3,-2,9,6,-8,-5,-1,-3
