,index,midi_note_num,diatonic_note_num,chromatic_pitch_class,onset,duration,velocity,bar_count,relative_chromatic_pitch,relative_diatonic_pitch,chromatic_scale_degree,diatonic_scale_degree,chromatic_interval,diatonic_interval,parsons_code,parsons_cumsum
0,0,62,30,2,0.0,1.0,105,0,0,0,0,1,0,0,0,0
1,3,62,30,2,3.0,1.0,95,0,0,0,0,1,-7,-4,0,0
2,6,71,35,11,6.0,1.0,105,1,9,5,9,6,2,1,1,1
3,10,69,34,9,9.0,1.0,95,1,7,4,7,5,-2,-1,-1,0
4,13,62,30,2,12.0,1.0,105,2,0,0,0,1,-2,-1,-1,-1
5,16,62,30,2,15.0,1.0,95,2,0,0,0,1,-7,-4,0,-1
6,19,62,30,2,18.0,1.0,105,3,0,0,0,1,-7,-4,0,-1
7,22,64,31,4,21.0,2.0,95,3,2,1,2,2,2,1,1,0
8,24,62,30,2,24.0,1.0,105,4,0,0,0,1,-2,-1,-1,-1
9,27,62,30,2,27.0,1.0,95,4,0,0,0,1,-7,-4,0,-1
10,30,71,35,11,30.0,2.0,105,5,9,5,9,6,2,1,1,0
11,32,73,36,1,33.0,0.5,95,5,11,6,11,7,-1,-1,1,1
12,36,74,37,2,36.0,2.0,105,6,12,7,0,1,8,5,1,2
13,38,71,35,11,39.0,1.0,95,6,9,5,9,6,2,1,-1,1
14,41,64,31,4,42.0,1.0,105,7,2,1,2,2,-2,-1,-1,0
15,44,62,30,2,45.0,3.0,95,7,0,0,0,1,-2,-1,-1,-1
16,45,62,30,2,48.0,1.0,105,8,0,0,0,1,0,0,0,-1
17,48,62,30,2,51.0,1.0,95,8,0,0,0,1,-7,-4,0,-1
18,51,71,35,11,54.0,1.0,105,9,9,5,9,6,2,1,1,0
19,55,69,34,9,57.0,1.0,95,9,7,4,7,5,-2,-1,-1,-1
20,58,62,30,2,60.0,1.0,105,10,0,0,0,1,-2,-1,-1,-2
21,61,62,30,2,63.0,1.0,95,10,0,0,0,1,-7,-4,0,-2
22,64,62,30,2,66.0,1.0,105,11,0,0,0,1,-7,-4,0,-2
23,67,64,31,4,69.0,2.0,95,11,2,1,2,2,2,1,1,-1
24,69,62,30,2,72.0,1.0,105,12,0,0,0,1,-2,-1,-1,-2
25,72,62,30,2,75.0,1.0,95,12,0,0,0,1,-7,-4,0,-2
26,75,71,35,11,78.0,2.0,105,13,9,5,9,6,2,1,1,-1
27,77,73,36,1,81.0,0.5,95,13,11,6,11,7,-1,-1,1,0
28,81,74,37,2,84.0,2.0,105,14,12,7,0,1,8,5,1,1
29,83,71,35,11,87.0,1.0,95,14,9,5,9,6,2,1,-1,0
30,86,64,31,4,90.0,1.0,105,15,2,1,2,2,-2,-1,-1,-1
31,89,62,30,2,93.0,3.0,95,15,0,0,0,1,-2,-1,-1,-2
32,90,74,37,2,96.0,2.0,105,16,12,7,0,1,12,7,1,-1
33,92,71,35,11,99.0,1.0,95,16,9,5,9,6,2,1,-1,-2
34,95,74,37,2,102.0,1.0,105,17,12,7,0,1,8,5,1,-1
35,99,71,35,11,105.0,1.0,95,17,9,5,9,6,-3,-2,-1,-2
36,102,74,37,2,108.0,2.0,105,18,12,7,0,1,8,5,1,-1
37,104,71,35,11,111.0,1.0,95,18,9,5,9,6,2,1,-1,-2
38,107,64,31,4,114.0,1.0,105,19,2,1,2,2,-2,-1,-1,-3
39,110,69,34,9,117.0,1.0,95,19,7,4,7,5,2,1,1,-2
40,113,74,37,2,120.0,2.0,105,20,12,7,0,1,1,1,1,-1
41,115,71,35,11,123.0,1.0,95,20,9,5,9,6,2,1,-1,-2
42,118,74,37,2,126.0,1.0,105,21,12,7,0,1,8,5,1,-1
43,121,69,34,9,129.0,1.0,95,21,7,4,7,5,-2,-1,-1,-2
44,124,74,37,2,132.0,2.0,105,22,12,7,0,1,8,5,1,-1
45,126,71,35,11,135.0,1.0,95,22,9,5,9,6,2,1,-1,-2
46,129,64,31,4,138.0,1.0,105,23,2,1,2,2,-2,-1,-1,-3
47,132,62,30,2,141.0,3.0,95,23,0,0,0,1,-2,-1,-1,-4
48,133,74,37,2,144.0,2.0,105,24,12,7,0,1,12,7,1,-3
49,135,71,35,11,147.0,1.0,95,24,9,5,9,6,2,1,-1,-4
50,138,74,37,2,150.0,1.0,105,25,12,7,0,1,8,5,1,-3
51,141,79,40,7,153.0,1.0,95,25,17,10,5,4,1,1,1,-2
52,144,74,37,2,156.0,2.0,105,26,12,7,0,1,-2,-1,-1,-3
53,146,71,35,11,159.0,1.0,95,26,9,5,9,6,2,1,-1,-4
54,149,64,31,4,162.0,1.0,105,27,2,1,2,2,-2,-1,-1,-5
55,152,69,34,9,165.0,1.0,95,27,7,4,7,5,2,1,1,-4
56,155,74,37,2,168.0,2.0,105,28,12,7,0,1,1,1,1,-3
57,157,71,35,11,171.0,1.0,95,28,9,5,9,6,2,1,-1,-4
58,160,74,37,2,174.0,1.0,105,29,12,7,0,1,8,5,1,-3
59,163,69,34,9,177.0,1.0,95,29,7,4,7,5,-2,-1,-1,-4
60,166,74,37,2,180.0,2.0,105,30,12,7,0,1,8,5,1,-3
61,168,71,35,11,183.0,1.0,95,30,9,5,9,6,2,1,-1,-4
62,171,64,31,4,186.0,1.0,105,31,2,1,2,2,-2,-1,-1,-5
63,174,62,30,2,189.0,3.0,95,31,0,0,0,1,-2,-1,-1,-6
64,175,74,37,2,192.0,2.0,105,32,12,7,0,1,12,7,1,-5
65,177,71,35,11,195.0,1.0,95,32,9,5,9,6,2,1,-1,-6
66,180,74,37,2,198.0,1.0,105,33,12,7,0,1,8,5,1,-5
67,184,71,35,11,201.0,1.0,95,33,9,5,9,6,-3,-2,-1,-6
68,187,74,37,2,204.0,2.0,105,34,12,7,0,1,8,5,1,-5
69,189,71,35,11,207.0,1.0,95,34,9,5,9,6,2,1,-1,-6
70,192,64,31,4,210.0,1.0,105,35,2,1,2,2,-2,-1,-1,-7
71,195,69,34,9,213.0,1.0,95,35,7,4,7,5,2,1,1,-6
72,198,74,37,2,216.0,2.0,105,36,12,7,0,1,1,1,1,-5
73,200,71,35,11,219.0,1.0,95,36,9,5,9,6,2,1,-1,-6
74,203,74,37,2,222.0,1.0,105,37,12,7,0,1,8,5,1,-5
75,206,69,34,9,225.0,1.0,95,37,7,4,7,5,-2,-1,-1,-6
76,209,74,37,2,228.0,2.0,105,38,12,7,0,1,8,5,1,-5
77,211,71,35,11,231.0,1.0,95,38,9,5,9,6,2,1,-1,-6
78,214,64,31,4,234.0,1.0,105,39,2,1,2,2,-2,-1,-1,-7
79,217,62,30,2,237.0,3.0,95,39,0,0,0,1,-2,-1,-1,-8
80,218,74,37,2,240.0,2.0,105,40,12,7,0,1,12,7,1,-7
81,220,71,35,11,243.0,1.0,95,40,9,5,9,6,2,1,-1,-8
82,223,74,37,2,246.0,1.0,105,41,12,7,0,1,8,5,1,-7
83,226,79,40,7,249.0,1.0,95,41,17,10,5,4,1,1,1,-6
84,229,74,37,2,252.0,2.0,105,42,12,7,0,1,-2,-1,-1,-7
85,231,71,35,11,255.0,1.0,95,42,9,5,9,6,2,1,-1,-8
86,234,64,31,4,258.0,1.0,105,43,2,1,2,2,-2,-1,-1,-9
87,237,69,34,9,261.0,1.0,95,43,7,4,7,5,2,1,1,-8
88,240,74,37,2,264.0,2.0,105,44,12,7,0,1,1,1,1,-7
89,242,71,35,11,267.0,1.0,95,44,9,5,9,6,2,1,-1,-8
90,245,74,37,2,270.0,1.0,105,45,12,7,0,1,8,5,1,-7
91,248,69,34,9,273.0,1.0,95,45,7,4,7,5,-2,-1,-1,-8
92,251,74,37,2,276.0,2.0,105,46,12,7,0,1,8,5,1,-7
93,253,71,35,11,279.0,1.0,95,46,9,5,9,6,2,1,-1,-8
94,256,64,31,4,282.0,1.0,105,47,2,1,2,2,-2,-1,-1,-9
95,259,62,30,2,285.0,3.0,95,47,0,0,0,1,-2,-1,-1,-10
