,index,midi_note_num,diatonic_note_num,chromatic_pitch_class,onset,duration,velocity,bar_count,relative_chromatic_pitch,relative_diatonic_pitch,chromatic_scale_degree,diatonic_scale_degree,chromatic_interval,diatonic_interval,parsons_code,parsons_cumsum
0,3,74,37,2,2.0,2.0,105,0,12,7,0,1,0,0,0,0
1,5,66,32,6,6.0,2.0,95,0,4,2,4,3,4,2,-1,-1
2,7,74,37,2,10.0,2.0,105,1,12,7,0,1,5,3,1,0
3,10,74,37,2,14.0,2.0,95,1,12,7,0,1,-2,-1,0,0
4,12,74,37,2,18.0,2.0,105,2,12,7,0,1,5,3,0,0
5,15,79,40,7,22.0,1.0,95,2,17,10,5,4,1,1,1,1
6,19,73,36,1,26.0,1.0,105,3,11,6,11,7,-1,-1,-1,0
7,23,69,34,9,30.0,1.0,95,3,7,4,7,5,-4,-2,-1,-1
8,27,74,37,2,34.0,2.0,105,4,12,7,0,1,5,3,1,0
9,29,66,32,6,38.0,2.0,95,4,4,2,4,3,4,2,-1,-1
10,31,74,37,2,42.0,2.0,105,5,12,7,0,1,5,3,1,0
11,34,74,37,2,46.0,2.0,95,5,12,7,0,1,-2,-1,0,0
12,36,71,35,11,50.0,2.0,105,6,9,5,9,6,2,1,-1,-1
13,38,78,39,6,54.0,1.0,95,6,16,9,4,3,-1,-1,1,0
14,42,74,37,2,58.0,4.0,105,7,12,7,0,1,1,1,-1,-1
15,43,74,37,2,62.0,2.0,95,7,12,7,0,1,0,0,0,-1
16,47,74,37,2,66.0,2.0,105,8,12,7,0,1,1,1,0,-1
17,49,66,32,6,70.0,2.0,95,8,4,2,4,3,4,2,-1,-2
18,51,74,37,2,74.0,2.0,105,9,12,7,0,1,5,3,1,-1
19,54,74,37,2,78.0,2.0,95,9,12,7,0,1,-2,-1,0,-1
20,56,74,37,2,82.0,2.0,105,10,12,7,0,1,5,3,0,-1
21,59,79,40,7,86.0,1.0,95,10,17,10,5,4,1,1,1,0
22,63,73,36,1,90.0,1.0,105,11,11,6,11,7,-1,-1,-1,-1
23,67,69,34,9,94.0,1.0,95,11,7,4,7,5,-4,-2,-1,-2
24,71,74,37,2,98.0,2.0,105,12,12,7,0,1,5,3,1,-1
25,73,66,32,6,102.0,2.0,95,12,4,2,4,3,4,2,-1,-2
26,75,74,37,2,106.0,2.0,105,13,12,7,0,1,5,3,1,-1
27,78,74,37,2,110.0,2.0,95,13,12,7,0,1,-2,-1,0,-1
28,80,71,35,11,114.0,2.0,105,14,9,5,9,6,2,1,-1,-2
29,82,78,39,6,118.0,1.0,95,14,16,9,4,3,-1,-1,1,-1
30,86,74,37,2,122.0,4.0,105,15,12,7,0,1,1,1,-1,-2
31,87,74,37,2,126.0,2.0,95,15,12,7,0,1,0,0,0,-2
32,90,81,41,9,130.0,3.0,105,16,19,11,7,5,2,1,1,-1
33,92,81,41,9,134.0,2.0,95,16,19,11,7,5,-2,-1,0,-1
34,95,79,40,7,138.0,3.0,105,17,17,10,5,4,1,1,-1,-2
35,97,79,40,7,142.0,2.0,95,17,17,10,5,4,-2,-1,0,-2
36,100,78,39,6,146.0,2.0,105,18,16,9,4,3,2,1,-1,-3
37,102,79,40,7,150.0,1.0,95,18,17,10,5,4,5,3,1,-2
38,106,73,36,1,154.0,1.0,105,19,11,6,11,7,-1,-1,-1,-3
39,110,69,34,9,158.0,1.0,95,19,7,4,7,5,-4,-2,-1,-4
40,114,74,37,2,162.0,2.0,105,20,12,7,0,1,5,3,1,-3
41,116,66,32,6,166.0,2.0,95,20,4,2,4,3,4,2,-1,-4
42,118,74,37,2,170.0,2.0,105,21,12,7,0,1,5,3,1,-3
43,121,74,37,2,174.0,2.0,95,21,12,7,0,1,-2,-1,0,-3
44,123,71,35,11,178.0,2.0,105,22,9,5,9,6,2,1,-1,-4
45,125,78,39,6,182.0,1.0,95,22,16,9,4,3,-1,-1,1,-3
46,129,74,37,2,186.0,4.0,105,23,12,7,0,1,1,1,-1,-4
47,130,74,37,2,190.0,2.0,95,23,12,7,0,1,0,0,0,-4
48,133,81,41,9,194.0,3.0,105,24,19,11,7,5,2,1,1,-3
49,135,81,41,9,198.0,2.0,95,24,19,11,7,5,-2,-1,0,-3
50,138,79,40,7,202.0,3.0,105,25,17,10,5,4,1,1,-1,-4
51,140,79,40,7,206.0,2.0,95,25,17,10,5,4,-2,-1,0,-4
52,143,78,39,6,210.0,2.0,105,26,16,9,4,3,2,1,-1,-5
53,145,79,40,7,214.0,1.0,95,26,17,10,5,4,5,3,1,-4
54,149,73,36,1,218.0,1.0,105,27,11,6,11,7,-1,-1,-1,-5
55,153,69,34,9,222.0,1.0,95,27,7,4,7,5,-4,-2,-1,-6
56,157,74,37,2,226.0,2.0,105,28,12,7,0,1,5,3,1,-5
57,159,66,32,6,230.0,2.0,95,28,4,2,4,3,4,2,-1,-6
58,161,74,37,2,234.0,2.0,105,29,12,7,0,1,5,3,1,-5
59,164,74,37,2,238.0,2.0,95,29,12,7,0,1,-2,-1,0,-5
60,166,71,35,11,242.0,2.0,105,30,9,5,9,6,2,1,-1,-6
61,168,78,39,6,246.0,1.0,95,30,16,9,4,3,-1,-1,1,-5
62,172,74,37,2,250.0,4.0,105,31,12,7,0,1,1,1,-1,-6
63,173,74,37,2,254.0,2.0,95,31,12,7,0,1,0,0,0,-6
64,175,74,37,2,258.0,1.0,105,32,12,7,0,1,5,3,0,-6
65,179,67,33,7,262.0,1.0,95,32,5,3,5,4,-2,-1,-1,-7
66,183,66,32,6,266.0,1.0,105,33,4,2,4,3,4,2,-1,-8
67,187,74,37,2,270.0,3.0,95,33,12,7,0,1,5,3,1,-7
68,189,74,37,2,274.0,2.0,105,34,12,7,0,1,5,3,0,-7
69,192,79,40,7,278.0,1.0,95,34,17,10,5,4,1,1,1,-6
70,196,73,36,1,282.0,1.0,105,35,11,6,11,7,-1,-1,-1,-7
71,200,69,34,9,286.0,1.0,95,35,7,4,7,5,-4,-2,-1,-8
72,204,74,37,2,290.0,1.0,105,36,12,7,0,1,5,3,1,-7
73,208,67,33,7,294.0,1.0,95,36,5,3,5,4,-2,-1,-1,-8
74,212,66,32,6,298.0,1.0,105,37,4,2,4,3,4,2,-1,-9
75,216,74,37,2,302.0,3.0,95,37,12,7,0,1,5,3,1,-8
76,218,71,35,11,306.0,2.0,105,38,9,5,9,6,2,1,-1,-9
77,220,78,39,6,310.0,1.0,95,38,16,9,4,3,-1,-1,1,-8
78,224,74,37,2,314.0,4.0,105,39,12,7,0,1,1,1,-1,-9
79,225,74,37,2,318.0,2.0,95,39,12,7,0,1,0,0,0,-9
80,227,74,37,2,322.0,1.0,105,40,12,7,0,1,5,3,0,-9
81,231,67,33,7,326.0,1.0,95,40,5,3,5,4,-2,-1,-1,-10
82,235,66,32,6,330.0,1.0,105,41,4,2,4,3,4,2,-1,-11
83,239,74,37,2,334.0,3.0,95,41,12,7,0,1,5,3,1,-10
84,241,74,37,2,338.0,2.0,105,42,12,7,0,1,5,3,0,-10
85,244,79,40,7,342.0,1.0,95,42,17,10,5,4,1,1,1,-9
86,248,73,36,1,346.0,1.0,105,43,11,6,11,7,-1,-1,-1,-10
87,252,69,34,9,350.0,1.0,95,43,7,4,7,5,-4,-2,-1,-11
88,256,74,37,2,354.0,1.0,105,44,12,7,0,1,5,3,1,-10
89,260,67,33,7,358.0,1.0,95,44,5,3,5,4,-2,-1,-1,-11
90,264,66,32,6,362.0,1.0,105,45,4,2,4,3,4,2,-1,-12
91,268,74,37,2,366.0,3.0,95,45,12,7,0,1,5,3,1,-11
92,270,71,35,11,370.0,2.0,105,46,9,5,9,6,2,1,-1,-12
93,272,78,39,6,374.0,1.0,95,46,16,9,4,3,-1,-1,1,-11
94,276,74,37,2,378.0,4.0,105,47,12,7,0,1,1,1,-1,-12
95,277,74,37,2,382.0,2.0,95,47,12,7,0,1,0,0,0,-12
96,280,81,41,9,386.0,1.0,105,48,19,11,7,5,2,1,1,-11
97,285,81,41,9,390.0,1.0,95,48,19,11,7,5,12,7,0,-11
98,290,79,40,7,394.0,1.0,105,49,17,10,5,4,10,6,-1,-12
99,295,79,40,7,398.0,1.0,95,49,17,10,5,4,10,6,0,-12
100,299,78,39,6,402.0,1.0,105,50,16,9,4,3,9,5,-1,-13
101,303,79,40,7,406.0,1.0,95,50,17,10,5,4,10,6,1,-12
102,307,73,36,1,410.0,1.0,105,51,11,6,11,7,-1,-1,-1,-13
103,311,69,34,9,414.0,1.0,95,51,7,4,7,5,-4,-2,-1,-14
104,315,74,37,2,418.0,1.0,105,52,12,7,0,1,5,3,1,-13
105,319,67,33,7,422.0,1.0,95,52,5,3,5,4,-2,-1,-1,-14
106,323,66,32,6,426.0,2.0,105,53,4,2,4,3,4,2,-1,-15
107,325,74,37,2,430.0,2.0,95,53,12,7,0,1,5,3,1,-14
108,327,71,35,11,434.0,2.0,105,54,9,5,9,6,2,1,-1,-15
109,329,78,39,6,438.0,1.0,95,54,16,9,4,3,-1,-1,1,-14
110,333,74,37,2,442.0,4.0,105,55,12,7,0,1,1,1,-1,-15
111,334,74,37,2,446.0,2.0,95,55,12,7,0,1,0,0,0,-15
112,337,81,41,9,450.0,1.0,105,56,19,11,7,5,2,1,1,-14
113,342,81,41,9,454.0,1.0,95,56,19,11,7,5,12,7,0,-14
114,347,79,40,7,458.0,1.0,105,57,17,10,5,4,10,6,-1,-15
115,352,79,40,7,462.0,1.0,95,57,17,10,5,4,10,6,0,-15
116,356,78,39,6,466.0,1.0,105,58,16,9,4,3,9,5,-1,-16
117,360,79,40,7,470.0,1.0,95,58,17,10,5,4,10,6,1,-15
118,364,73,36,1,474.0,1.0,105,59,11,6,11,7,-1,-1,-1,-16
119,368,69,34,9,478.0,1.0,95,59,7,4,7,5,-4,-2,-1,-17
120,372,74,37,2,482.0,1.0,105,60,12,7,0,1,5,3,1,-16
121,376,67,33,7,486.0,1.0,95,60,5,3,5,4,-2,-1,-1,-17
122,380,66,32,6,490.0,2.0,105,61,4,2,4,3,4,2,-1,-18
123,382,74,37,2,494.0,2.0,95,61,12,7,0,1,5,3,1,-17
124,384,71,35,11,498.0,2.0,105,62,9,5,9,6,2,1,-1,-18
125,386,78,39,6,502.0,1.0,95,62,16,9,4,3,-1,-1,1,-17
126,390,74,37,2,506.0,4.0,105,63,12,7,0,1,1,1,-1,-18
127,391,74,37,2,510.0,2.0,95,63,12,7,0,1,0,0,0,-18
