,index,midi_note_num,diatonic_note_num,chromatic_pitch_class,onset,duration,velocity,bar_count,relative_chromatic_pitch,relative_diatonic_pitch,chromatic_scale_degree,diatonic_scale_degree,chromatic_interval,diatonic_interval,parsons_code,parsons_cumsum
0,0,71,35,11,0.0,4.0,105,0,4,2,4,3,0,0,0,0
1,1,74,37,2,4.0,2.0,95,0,7,4,7,5,3,2,1,1
2,2,67,33,7,6.0,4.0,105,1,0,0,0,1,-7,-4,-1,0
3,3,69,34,9,10.0,1.0,95,1,2,1,2,2,2,1,1,1
4,5,72,36,0,12.0,4.0,105,2,5,3,5,4,1,1,1,2
5,6,76,38,4,16.0,2.0,95,2,9,5,9,6,4,2,1,3
6,7,69,34,9,18.0,4.0,105,3,2,1,2,2,-7,-4,-1,2
7,8,79,40,7,22.0,2.0,95,3,12,7,0,1,10,6,1,3
8,9,78,39,6,24.0,4.0,105,4,11,6,11,7,-1,-1,-1,2
9,10,79,40,7,28.0,1.0,95,4,12,7,0,1,1,1,1,3
10,12,74,37,2,30.0,4.0,105,5,7,4,7,5,-7,-4,-1,2
11,13,76,38,4,34.0,1.0,95,5,9,5,9,6,2,1,1,3
12,15,79,40,7,36.0,4.0,105,6,12,7,0,1,1,1,1,4
13,16,79,40,7,40.0,1.0,95,6,12,7,0,1,0,0,0,4
14,18,76,38,4,42.0,0.67,105,7,9,5,9,6,-2,-1,-1,3
15,22,72,36,0,46.0,2.0,95,7,5,3,5,4,-2,-1,-1,2
16,23,71,35,11,48.0,4.0,105,8,4,2,4,3,-1,-1,-1,1
17,24,74,37,2,52.0,2.0,95,8,7,4,7,5,3,2,1,2
18,25,67,33,7,54.0,4.0,105,9,0,0,0,1,-7,-4,-1,1
19,26,69,34,9,58.0,1.0,95,9,2,1,2,2,2,1,1,2
20,28,72,36,0,60.0,4.0,105,10,5,3,5,4,1,1,1,3
21,29,76,38,4,64.0,2.0,95,10,9,5,9,6,4,2,1,4
22,30,69,34,9,66.0,4.0,105,11,2,1,2,2,-7,-4,-1,3
23,31,79,40,7,70.0,2.0,95,11,12,7,0,1,10,6,1,4
24,32,78,39,6,72.0,4.0,105,12,11,6,11,7,-1,-1,-1,3
25,33,79,40,7,76.0,1.0,95,12,12,7,0,1,1,1,1,4
26,35,74,37,2,78.0,4.0,105,13,7,4,7,5,-7,-4,-1,3
27,36,76,38,4,82.0,1.0,95,13,9,5,9,6,2,1,1,4
28,38,79,40,7,84.0,4.0,105,14,12,7,0,1,1,1,1,5
29,39,83,42,11,88.0,2.0,95,14,16,9,4,3,4,2,1,6
30,40,79,40,7,90.0,4.0,105,15,12,7,0,1,-4,-2,-1,5
31,41,71,35,11,94.0,4.0,95,15,4,2,4,3,-8,-5,-1,4
32,42,74,37,2,98.0,2.0,95,15,7,4,7,5,3,2,1,5
33,43,67,33,7,100.0,4.0,105,16,0,0,0,1,-7,-4,-1,4
34,44,69,34,9,104.0,1.0,95,16,2,1,2,2,2,1,1,5
35,46,72,36,0,106.0,4.0,105,17,5,3,5,4,1,1,1,6
36,47,76,38,4,110.0,2.0,95,17,9,5,9,6,4,2,1,7
37,48,69,34,9,112.0,4.0,105,18,2,1,2,2,-7,-4,-1,6
38,49,79,40,7,116.0,2.0,95,18,12,7,0,1,10,6,1,7
39,50,78,39,6,118.0,4.0,105,19,11,6,11,7,-1,-1,-1,6
40,51,79,40,7,122.0,1.0,95,19,12,7,0,1,1,1,1,7
41,53,74,37,2,124.0,4.0,105,20,7,4,7,5,-7,-4,-1,6
42,54,76,38,4,128.0,1.0,95,20,9,5,9,6,2,1,1,7
43,56,79,40,7,130.0,4.0,105,21,12,7,0,1,1,1,1,8
44,57,79,40,7,134.0,1.0,95,21,12,7,0,1,0,0,0,8
45,59,76,38,4,136.0,0.67,105,22,9,5,9,6,-2,-1,-1,7
46,63,72,36,0,140.0,2.0,95,22,5,3,5,4,-2,-1,-1,6
47,64,71,35,11,142.0,4.0,105,23,4,2,4,3,-1,-1,-1,5
48,65,74,37,2,146.0,2.0,95,23,7,4,7,5,3,2,1,6
49,66,67,33,7,148.0,4.0,105,24,0,0,0,1,-7,-4,-1,5
50,67,69,34,9,152.0,1.0,95,24,2,1,2,2,2,1,1,6
51,69,72,36,0,154.0,4.0,105,25,5,3,5,4,1,1,1,7
52,70,76,38,4,158.0,2.0,95,25,9,5,9,6,4,2,1,8
53,71,69,34,9,160.0,4.0,105,26,2,1,2,2,-7,-4,-1,7
54,72,79,40,7,164.0,2.0,95,26,12,7,0,1,10,6,1,8
55,73,78,39,6,166.0,4.0,105,27,11,6,11,7,-1,-1,-1,7
56,74,79,40,7,170.0,1.0,95,27,12,7,0,1,1,1,1,8
57,76,74,37,2,172.0,4.0,105,28,7,4,7,5,-7,-4,-1,7
58,77,76,38,4,176.0,1.0,95,28,9,5,9,6,2,1,1,8
59,79,79,40,7,178.0,4.0,105,29,12,7,0,1,1,1,1,9
60,80,83,42,11,182.0,2.0,95,29,16,9,4,3,4,2,1,10
61,81,79,40,7,184.0,4.0,105,30,12,7,0,1,-4,-2,-1,9
62,82,74,37,2,188.0,4.0,95,30,7,4,7,5,-5,-3,-1,8
63,83,71,35,11,192.0,1.0,95,30,4,2,4,3,-3,-2,-1,7
64,85,79,40,7,194.0,4.0,105,31,12,7,0,1,5,3,1,8
65,86,71,35,11,198.0,2.0,95,31,4,2,4,3,-8,-5,-1,7
66,87,72,36,0,200.0,3.0,105,32,5,3,5,4,1,1,1,8
67,89,72,36,0,204.0,1.0,95,32,5,3,5,4,1,1,0,8
68,91,76,38,4,206.0,4.0,105,33,9,5,9,6,2,1,1,9
69,92,76,38,4,210.0,2.0,95,33,9,5,9,6,0,0,0,9
70,93,62,30,2,212.0,4.0,105,34,-5,-3,7,5,-14,-8,-1,8
71,94,66,32,6,216.0,1.0,95,34,-1,-1,11,7,4,2,1,9
72,96,74,37,2,218.0,4.0,105,35,7,4,7,5,5,3,1,10
73,97,66,32,6,222.0,2.0,95,35,-1,-1,11,7,-8,-5,-1,9
74,98,67,33,7,224.0,3.0,105,36,0,0,0,1,1,1,1,10
75,100,71,35,11,228.0,1.0,95,36,4,2,4,3,2,1,1,11
76,102,74,37,2,230.0,4.0,105,37,7,4,7,5,2,1,1,12
77,103,71,35,11,234.0,1.0,95,37,4,2,4,3,-3,-2,-1,11
78,105,74,37,2,236.0,4.0,105,38,7,4,7,5,2,1,1,12
79,106,71,35,11,240.0,1.0,95,38,4,2,4,3,-3,-2,-1,11
80,108,79,40,7,242.0,4.0,105,39,12,7,0,1,5,3,1,12
81,109,71,35,11,246.0,2.0,95,39,4,2,4,3,-8,-5,-1,11
82,110,72,36,0,248.0,3.0,105,40,5,3,5,4,1,1,1,12
83,112,72,36,0,252.0,1.0,95,40,5,3,5,4,1,1,0,12
84,114,76,38,4,254.0,4.0,105,41,9,5,9,6,2,1,1,13
85,115,76,38,4,258.0,2.0,95,41,9,5,9,6,0,0,0,13
86,116,62,30,2,260.0,4.0,105,42,-5,-3,7,5,-14,-8,-1,12
87,117,66,32,6,264.0,1.0,95,42,-1,-1,11,7,4,2,1,13
88,119,74,37,2,266.0,3.0,105,43,7,4,7,5,5,3,1,14
89,121,71,35,11,270.0,1.0,95,43,4,2,4,3,-1,-1,-1,13
90,123,67,33,7,272.0,4.0,105,44,0,0,0,1,-2,-1,-1,12
91,124,79,40,7,276.0,2.0,95,44,12,7,0,1,12,7,1,13
92,125,79,40,7,278.0,4.0,105,45,12,7,0,1,0,0,0,13
93,126,74,37,2,282.0,4.0,95,45,7,4,7,5,-5,-3,-1,12
94,127,71,35,11,286.0,1.0,95,45,4,2,4,3,-3,-2,-1,11
95,129,79,40,7,288.0,4.0,105,46,12,7,0,1,5,3,1,12
96,130,71,35,11,292.0,2.0,95,46,4,2,4,3,-8,-5,-1,11
97,131,72,36,0,294.0,3.0,105,47,5,3,5,4,1,1,1,12
98,133,72,36,0,298.0,1.0,95,47,5,3,5,4,1,1,0,12
99,135,76,38,4,300.0,4.0,105,48,9,5,9,6,2,1,1,13
100,136,76,38,4,304.0,2.0,95,48,9,5,9,6,0,0,0,13
101,137,62,30,2,306.0,4.0,105,49,-5,-3,7,5,-14,-8,-1,12
102,138,66,32,6,310.0,1.0,95,49,-1,-1,11,7,4,2,1,13
103,140,74,37,2,312.0,4.0,105,50,7,4,7,5,5,3,1,14
104,141,66,32,6,316.0,2.0,95,50,-1,-1,11,7,-8,-5,-1,13
105,142,67,33,7,318.0,3.0,105,51,0,0,0,1,1,1,1,14
106,144,71,35,11,322.0,1.0,95,51,4,2,4,3,2,1,1,15
107,146,74,37,2,324.0,4.0,105,52,7,4,7,5,2,1,1,16
108,147,71,35,11,328.0,1.0,95,52,4,2,4,3,-3,-2,-1,15
109,149,74,37,2,330.0,4.0,105,53,7,4,7,5,2,1,1,16
110,150,71,35,11,334.0,1.0,95,53,4,2,4,3,-3,-2,-1,15
111,152,79,40,7,336.0,4.0,105,54,12,7,0,1,5,3,1,16
112,153,71,35,11,340.0,2.0,95,54,4,2,4,3,-8,-5,-1,15
113,154,72,36,0,342.0,3.0,105,55,5,3,5,4,1,1,1,16
114,156,72,36,0,346.0,1.0,95,55,5,3,5,4,1,1,0,16
115,158,76,38,4,348.0,4.0,105,56,9,5,9,6,2,1,1,17
116,159,76,38,4,352.0,2.0,95,56,9,5,9,6,0,0,0,17
117,160,62,30,2,354.0,4.0,105,57,-5,-3,7,5,-14,-8,-1,16
118,161,66,32,6,358.0,1.0,95,57,-1,-1,11,7,4,2,1,17
119,163,74,37,2,360.0,3.0,105,58,7,4,7,5,5,3,1,18
120,165,71,35,11,364.0,1.0,95,58,4,2,4,3,-1,-1,-1,17
121,167,67,33,7,366.0,4.0,105,59,0,0,0,1,-2,-1,-1,16
122,168,79,40,7,370.0,2.0,95,59,12,7,0,1,12,7,1,17
123,169,79,40,7,372.0,4.0,105,60,12,7,0,1,0,0,0,17
