,index,midi_note_num,diatonic_note_num,chromatic_pitch_class,onset,duration,velocity,bar_count,relative_chromatic_pitch,relative_diatonic_pitch,chromatic_scale_degree,diatonic_scale_degree,chromatic_interval,diatonic_interval,parsons_code,parsons_cumsum
0,0,57,27,9,0.0,1.0,105,0,-10,-6,2,2,0,0,0,0
1,5,55,26,7,3.0,2.0,95,0,-12,-7,0,1,-2,-1,-1,-1
2,7,57,27,9,6.0,1.0,105,1,-10,-6,2,2,-2,-1,1,0
3,10,60,29,0,9.0,1.0,95,1,-7,-4,5,4,1,1,1,1
4,15,62,30,2,12.0,1.0,105,2,-5,-3,7,5,2,1,1,2
5,18,64,31,4,15.0,1.0,95,2,-3,-2,9,6,2,1,1,3
6,21,67,33,7,18.0,1.0,105,3,0,0,0,1,1,1,1,4
7,26,64,31,4,21.0,1.0,95,3,-3,-2,9,6,-3,-2,-1,3
8,29,57,27,9,24.0,1.0,105,4,-10,-6,2,2,-2,-1,-1,2
9,34,55,26,7,27.0,2.0,95,4,-12,-7,0,1,-2,-1,-1,1
10,36,57,27,9,30.0,1.0,105,5,-10,-6,2,2,-2,-1,1,2
11,39,60,29,0,33.0,1.0,95,5,-7,-4,5,4,1,1,1,3
12,44,62,30,2,36.0,1.0,105,6,-5,-3,7,5,2,1,1,4
13,47,64,31,4,39.0,1.0,95,6,-3,-2,9,6,2,1,1,5
14,50,62,30,2,42.0,1.0,105,7,-5,-3,7,5,-2,-1,-1,4
15,53,57,27,9,45.0,1.0,95,7,-10,-6,2,2,-2,-1,-1,3
16,58,57,27,9,48.0,1.0,105,8,-10,-6,2,2,0,0,0,3
17,63,55,26,7,51.0,2.0,95,8,-12,-7,0,1,-2,-1,-1,2
18,65,57,27,9,54.0,1.0,105,9,-10,-6,2,2,-2,-1,1,3
19,68,60,29,0,57.0,1.0,95,9,-7,-4,5,4,1,1,1,4
20,73,62,30,2,60.0,1.0,105,10,-5,-3,7,5,2,1,1,5
21,76,64,31,4,63.0,1.0,95,10,-3,-2,9,6,2,1,1,6
22,79,67,33,7,66.0,1.0,105,11,0,0,0,1,1,1,1,7
23,84,64,31,4,69.0,1.0,95,11,-3,-2,9,6,-3,-2,-1,6
24,87,57,27,9,72.0,1.0,105,12,-10,-6,2,2,-2,-1,-1,5
25,92,55,26,7,75.0,2.0,95,12,-12,-7,0,1,-2,-1,-1,4
26,94,57,27,9,78.0,1.0,105,13,-10,-6,2,2,-2,-1,1,5
27,97,60,29,0,81.0,1.0,95,13,-7,-4,5,4,1,1,1,6
28,102,62,30,2,84.0,1.0,105,14,-5,-3,7,5,2,1,1,7
29,105,64,31,4,87.0,1.0,95,14,-3,-2,9,6,2,1,1,8
30,108,62,30,2,90.0,1.0,105,15,-5,-3,7,5,-2,-1,-1,7
31,111,57,27,9,93.0,1.0,95,15,-10,-6,2,2,-2,-1,-1,6
32,116,64,31,4,96.0,2.0,105,16,-3,-2,9,6,7,4,1,7
33,118,69,34,9,99.0,1.0,95,16,2,1,2,2,0,0,1,8
34,121,64,31,4,102.0,1.0,105,17,-3,-2,9,6,-5,-3,-1,7
35,124,62,30,2,105.0,2.0,95,17,-5,-3,7,5,-2,-1,-1,6
36,126,64,31,4,108.0,1.0,105,18,-3,-2,9,6,-3,-2,1,7
37,129,67,33,7,111.0,1.0,95,18,0,0,0,1,0,0,1,8
38,132,71,35,11,114.0,1.0,105,19,4,2,4,3,4,2,1,9
39,135,69,34,9,117.0,1.0,95,19,2,1,2,2,2,1,-1,8
40,138,64,31,4,120.0,2.0,105,20,-3,-2,9,6,-2,-1,-1,7
41,140,69,34,9,123.0,1.0,95,20,2,1,2,2,0,0,1,8
42,143,64,31,4,126.0,1.0,105,21,-3,-2,9,6,-5,-3,-1,7
43,146,62,30,2,129.0,2.0,95,21,-5,-3,7,5,-2,-1,-1,6
44,148,64,31,4,132.0,1.0,105,22,-3,-2,9,6,-3,-2,1,7
45,151,67,33,7,135.0,1.0,95,22,0,0,0,1,0,0,1,8
46,154,64,31,4,138.0,1.0,105,23,-3,-2,9,6,-3,-2,-1,7
47,157,57,27,9,141.0,3.0,95,23,-10,-6,2,2,-2,-1,-1,6
48,158,64,31,4,144.0,2.0,105,24,-3,-2,9,6,7,4,1,7
49,160,69,34,9,147.0,1.0,95,24,2,1,2,2,0,0,1,8
50,163,64,31,4,150.0,1.0,105,25,-3,-2,9,6,-5,-3,-1,7
51,166,62,30,2,153.0,2.0,95,25,-5,-3,7,5,-2,-1,-1,6
52,168,64,31,4,156.0,1.0,105,26,-3,-2,9,6,-3,-2,1,7
53,171,67,33,7,159.0,1.0,95,26,0,0,0,1,0,0,1,8
54,174,71,35,11,162.0,1.0,105,27,4,2,4,3,4,2,1,9
55,177,69,34,9,165.0,1.0,95,27,2,1,2,2,2,1,-1,8
56,180,64,31,4,168.0,2.0,105,28,-3,-2,9,6,-2,-1,-1,7
57,182,69,34,9,171.0,1.0,95,28,2,1,2,2,0,0,1,8
58,185,64,31,4,174.0,1.0,105,29,-3,-2,9,6,-5,-3,-1,7
59,188,62,30,2,177.0,2.0,95,29,-5,-3,7,5,-2,-1,-1,6
60,190,64,31,4,180.0,1.0,105,30,-3,-2,9,6,-3,-2,1,7
61,193,67,33,7,183.0,1.0,95,30,0,0,0,1,0,0,1,8
62,196,64,31,4,186.0,1.0,105,31,-3,-2,9,6,-3,-2,-1,7
63,199,57,27,9,189.0,3.0,95,31,-10,-6,2,2,-2,-1,-1,6
64,200,57,27,9,192.0,1.0,105,32,-10,-6,2,2,0,0,0,6
65,205,55,26,7,195.0,2.0,95,32,-12,-7,0,1,-2,-1,-1,5
66,207,57,27,9,198.0,1.0,105,33,-10,-6,2,2,-2,-1,1,6
67,210,60,29,0,201.0,1.0,95,33,-7,-4,5,4,1,1,1,7
68,215,62,30,2,204.0,1.0,105,34,-5,-3,7,5,2,1,1,8
69,218,64,31,4,207.0,1.0,95,34,-3,-2,9,6,2,1,1,9
70,221,67,33,7,210.0,1.0,105,35,0,0,0,1,1,1,1,10
71,226,64,31,4,213.0,1.0,95,35,-3,-2,9,6,-3,-2,-1,9
72,229,57,27,9,216.0,1.0,105,36,-10,-6,2,2,-2,-1,-1,8
73,234,55,26,7,219.0,2.0,95,36,-12,-7,0,1,-2,-1,-1,7
74,236,57,27,9,222.0,1.0,105,37,-10,-6,2,2,-2,-1,1,8
75,239,60,29,0,225.0,1.0,95,37,-7,-4,5,4,1,1,1,9
76,244,62,30,2,228.0,1.0,105,38,-5,-3,7,5,2,1,1,10
77,247,64,31,4,231.0,1.0,95,38,-3,-2,9,6,2,1,1,11
78,250,62,30,2,234.0,1.0,105,39,-5,-3,7,5,-2,-1,-1,10
79,253,57,27,9,237.0,1.0,95,39,-10,-6,2,2,-2,-1,-1,9
80,258,57,27,9,240.0,1.0,105,40,-10,-6,2,2,0,0,0,9
81,263,55,26,7,243.0,2.0,95,40,-12,-7,0,1,-2,-1,-1,8
82,265,57,27,9,246.0,1.0,105,41,-10,-6,2,2,-2,-1,1,9
83,268,60,29,0,249.0,1.0,95,41,-7,-4,5,4,1,1,1,10
84,273,62,30,2,252.0,1.0,105,42,-5,-3,7,5,2,1,1,11
85,276,64,31,4,255.0,1.0,95,42,-3,-2,9,6,2,1,1,12
86,279,67,33,7,258.0,1.0,105,43,0,0,0,1,1,1,1,13
87,284,64,31,4,261.0,1.0,95,43,-3,-2,9,6,-3,-2,-1,12
88,287,57,27,9,264.0,1.0,105,44,-10,-6,2,2,-2,-1,-1,11
89,292,55,26,7,267.0,2.0,95,44,-12,-7,0,1,-2,-1,-1,10
90,294,57,27,9,270.0,1.0,105,45,-10,-6,2,2,-2,-1,1,11
91,297,60,29,0,273.0,1.0,95,45,-7,-4,5,4,1,1,1,12
92,302,62,30,2,276.0,1.0,105,46,-5,-3,7,5,2,1,1,13
93,305,64,31,4,279.0,1.0,95,46,-3,-2,9,6,2,1,1,14
94,308,62,30,2,282.0,1.0,105,47,-5,-3,7,5,-2,-1,-1,13
95,311,57,27,9,285.0,1.0,95,47,-10,-6,2,2,-2,-1,-1,12
96,316,64,31,4,288.0,2.0,105,48,-3,-2,9,6,7,4,1,13
97,318,69,34,9,291.0,1.0,95,48,2,1,2,2,0,0,1,14
98,321,64,31,4,294.0,1.0,105,49,-3,-2,9,6,-5,-3,-1,13
99,324,62,30,2,297.0,2.0,95,49,-5,-3,7,5,-2,-1,-1,12
100,326,64,31,4,300.0,1.0,105,50,-3,-2,9,6,-3,-2,1,13
101,329,67,33,7,303.0,1.0,95,50,0,0,0,1,0,0,1,14
102,332,71,35,11,306.0,1.0,105,51,4,2,4,3,4,2,1,15
103,335,69,34,9,309.0,1.0,95,51,2,1,2,2,2,1,-1,14
104,338,64,31,4,312.0,2.0,105,52,-3,-2,9,6,-2,-1,-1,13
105,340,69,34,9,315.0,1.0,95,52,2,1,2,2,0,0,1,14
106,343,64,31,4,318.0,1.0,105,53,-3,-2,9,6,-5,-3,-1,13
107,346,62,30,2,321.0,2.0,95,53,-5,-3,7,5,-2,-1,-1,12
108,348,64,31,4,324.0,1.0,105,54,-3,-2,9,6,-3,-2,1,13
109,351,67,33,7,327.0,1.0,95,54,0,0,0,1,0,0,1,14
110,354,64,31,4,330.0,1.0,105,55,-3,-2,9,6,-3,-2,-1,13
111,357,57,27,9,333.0,3.0,95,55,-10,-6,2,2,-2,-1,-1,12
112,358,76,38,4,336.0,2.0,105,56,9,5,9,6,19,11,1,13
113,360,81,41,9,339.0,1.0,95,56,14,8,2,2,0,0,1,14
114,363,76,38,4,342.0,1.0,105,57,9,5,9,6,-5,-3,-1,13
115,366,74,37,2,345.0,2.0,95,57,7,4,7,5,-2,-1,-1,12
116,368,76,38,4,348.0,1.0,105,58,9,5,9,6,-3,-2,1,13
117,371,79,40,7,351.0,1.0,95,58,12,7,0,1,0,0,1,14
118,374,83,42,11,354.0,1.0,105,59,16,9,4,3,4,2,1,15
119,377,81,41,9,357.0,1.0,95,59,14,8,2,2,2,1,-1,14
120,380,76,38,4,360.0,2.0,105,60,9,5,9,6,-2,-1,-1,13
121,382,81,41,9,363.0,1.0,95,60,14,8,2,2,0,0,1,14
122,385,76,38,4,366.0,1.0,105,61,9,5,9,6,-5,-3,-1,13
123,388,74,37,2,369.0,2.0,95,61,7,4,7,5,-2,-1,-1,12
124,390,76,38,4,372.0,1.0,105,62,9,5,9,6,-3,-2,1,13
125,393,79,40,7,375.0,1.0,95,62,12,7,0,1,0,0,1,14
126,396,76,38,4,378.0,1.0,105,63,9,5,9,6,-3,-2,-1,13
127,399,69,34,9,381.0,3.0,95,63,2,1,2,2,-2,-1,-1,12
128,400,69,34,9,384.0,1.0,105,64,2,1,2,2,0,0,0,12
129,405,67,33,7,387.0,2.0,95,64,0,0,0,1,-2,-1,-1,11
130,407,69,34,9,390.0,1.0,105,65,2,1,2,2,-2,-1,1,12
131,410,72,36,0,393.0,1.0,95,65,5,3,5,4,1,1,1,13
132,415,74,37,2,396.0,1.0,105,66,7,4,7,5,2,1,1,14
133,418,76,38,4,399.0,1.0,95,66,9,5,9,6,2,1,1,15
134,421,79,40,7,402.0,1.0,105,67,12,7,0,1,1,1,1,16
135,426,76,38,4,405.0,1.0,95,67,9,5,9,6,-3,-2,-1,15
136,429,69,34,9,408.0,1.0,105,68,2,1,2,2,-2,-1,-1,14
137,434,67,33,7,411.0,2.0,95,68,0,0,0,1,-2,-1,-1,13
138,436,69,34,9,414.0,1.0,105,69,2,1,2,2,-2,-1,1,14
139,439,72,36,0,417.0,1.0,95,69,5,3,5,4,1,1,1,15
140,444,74,37,2,420.0,1.0,105,70,7,4,7,5,2,1,1,16
141,447,76,38,4,423.0,1.0,95,70,9,5,9,6,2,1,1,17
142,450,74,37,2,426.0,1.0,105,71,7,4,7,5,-2,-1,-1,16
143,453,69,34,9,429.0,1.0,95,71,2,1,2,2,-2,-1,-1,15
144,458,69,34,9,432.0,1.0,105,72,2,1,2,2,0,0,0,15
145,463,67,33,7,435.0,2.0,95,72,0,0,0,1,-2,-1,-1,14
146,465,69,34,9,438.0,1.0,105,73,2,1,2,2,-2,-1,1,15
147,468,72,36,0,441.0,1.0,95,73,5,3,5,4,1,1,1,16
148,473,74,37,2,444.0,1.0,105,74,7,4,7,5,2,1,1,17
149,476,76,38,4,447.0,1.0,95,74,9,5,9,6,2,1,1,18
150,479,79,40,7,450.0,1.0,105,75,12,7,0,1,1,1,1,19
151,484,76,38,4,453.0,1.0,95,75,9,5,9,6,-3,-2,-1,18
152,487,69,34,9,456.0,1.0,105,76,2,1,2,2,-2,-1,-1,17
153,492,67,33,7,459.0,2.0,95,76,0,0,0,1,-2,-1,-1,16
154,494,69,34,9,462.0,1.0,105,77,2,1,2,2,-2,-1,1,17
155,497,72,36,0,465.0,1.0,95,77,5,3,5,4,1,1,1,18
156,502,74,37,2,468.0,1.0,105,78,7,4,7,5,2,1,1,19
157,505,76,38,4,471.0,1.0,95,78,9,5,9,6,2,1,1,20
158,508,74,37,2,474.0,1.0,105,79,7,4,7,5,-2,-1,-1,19
159,511,69,34,9,477.0,1.0,95,79,2,1,2,2,-2,-1,-1,18
160,516,76,38,4,480.0,2.0,105,80,9,5,9,6,7,4,1,19
161,518,81,41,9,483.0,1.0,95,80,14,8,2,2,0,0,1,20
162,521,76,38,4,486.0,1.0,105,81,9,5,9,6,-5,-3,-1,19
163,524,74,37,2,489.0,2.0,95,81,7,4,7,5,-2,-1,-1,18
164,526,76,38,4,492.0,1.0,105,82,9,5,9,6,-3,-2,1,19
165,529,79,40,7,495.0,1.0,95,82,12,7,0,1,0,0,1,20
166,532,83,42,11,498.0,1.0,105,83,16,9,4,3,4,2,1,21
167,535,81,41,9,501.0,1.0,95,83,14,8,2,2,2,1,-1,20
168,538,76,38,4,504.0,2.0,105,84,9,5,9,6,-2,-1,-1,19
169,540,81,41,9,507.0,1.0,95,84,14,8,2,2,0,0,1,20
170,543,76,38,4,510.0,1.0,105,85,9,5,9,6,-5,-3,-1,19
171,546,74,37,2,513.0,2.0,95,85,7,4,7,5,-2,-1,-1,18
172,548,76,38,4,516.0,1.0,105,86,9,5,9,6,-3,-2,1,19
173,551,79,40,7,519.0,1.0,95,86,12,7,0,1,0,0,1,20
174,554,76,38,4,522.0,1.0,105,87,9,5,9,6,-3,-2,-1,19
175,557,69,34,9,525.0,3.0,95,87,2,1,2,2,-2,-1,-1,18
176,558,76,38,4,528.0,2.0,105,88,9,5,9,6,7,4,1,19
177,560,81,41,9,531.0,1.0,95,88,14,8,2,2,0,0,1,20
178,563,76,38,4,534.0,1.0,105,89,9,5,9,6,-5,-3,-1,19
179,566,74,37,2,537.0,2.0,95,89,7,4,7,5,-2,-1,-1,18
180,568,76,38,4,540.0,1.0,105,90,9,5,9,6,-3,-2,1,19
181,571,79,40,7,543.0,1.0,95,90,12,7,0,1,0,0,1,20
182,574,83,42,11,546.0,1.0,105,91,16,9,4,3,4,2,1,21
183,577,81,41,9,549.0,1.0,95,91,14,8,2,2,2,1,-1,20
184,580,76,38,4,552.0,2.0,105,92,9,5,9,6,-2,-1,-1,19
185,582,81,41,9,555.0,1.0,95,92,14,8,2,2,0,0,1,20
186,585,76,38,4,558.0,1.0,105,93,9,5,9,6,-5,-3,-1,19
187,588,74,37,2,561.0,2.0,95,93,7,4,7,5,-2,-1,-1,18
188,590,76,38,4,564.0,1.0,105,94,9,5,9,6,-3,-2,1,19
189,593,79,40,7,567.0,1.0,95,94,12,7,0,1,0,0,1,20
190,596,76,38,4,570.0,1.0,105,95,9,5,9,6,-3,-2,-1,19
191,599,69,34,9,573.0,3.0,95,95,2,1,2,2,-2,-1,-1,18
