,index,midi_note_num,diatonic_note_num,chromatic_pitch_class,onset,duration,velocity,bar_count,relative_chromatic_pitch,relative_diatonic_pitch,chromatic_scale_degree,diatonic_scale_degree,chromatic_interval,diatonic_interval,parsons_code,parsons_cumsum
0,0,69,34,9,0.0,1.0,105,0,7,4,7,5,0,0,0,0
1,3,76,38,4,3.0,2.0,95,0,14,8,2,2,2,1,1,1
2,5,79,40,7,6.0,2.0,105,1,17,10,5,4,10,6,1,2
3,7,76,38,4,9.0,2.0,95,1,14,8,2,2,2,1,-1,1
4,9,69,34,9,12.0,1.0,105,2,7,4,7,5,0,0,-1,0
5,12,76,38,4,15.0,2.0,95,2,14,8,2,2,2,1,1,1
6,14,79,40,7,18.0,2.0,105,3,17,10,5,4,1,1,1,2
7,16,74,37,2,21.0,1.0,95,3,12,7,0,1,-2,-1,-1,1
8,19,69,34,9,24.0,1.0,105,4,7,4,7,5,2,1,-1,0
9,22,76,38,4,27.0,2.0,95,4,14,8,2,2,2,1,1,1
10,24,76,38,4,30.0,1.0,105,5,14,8,2,2,7,4,0,1
11,27,76,38,4,33.0,2.0,95,5,14,8,2,2,2,1,0,1
12,29,71,35,11,36.0,1.0,105,6,9,5,9,6,2,1,-1,0
13,32,67,33,7,39.0,1.0,95,6,5,3,5,4,-4,-2,-1,-1
14,35,79,40,7,42.0,2.0,105,7,17,10,5,4,5,3,1,0
15,37,74,37,2,45.0,1.0,95,7,12,7,0,1,-2,-1,-1,-1
16,40,69,34,9,48.0,1.0,105,8,7,4,7,5,2,1,-1,-2
17,43,76,38,4,51.0,2.0,95,8,14,8,2,2,2,1,1,-1
18,45,79,40,7,54.0,2.0,105,9,17,10,5,4,10,6,1,0
19,47,76,38,4,57.0,2.0,95,9,14,8,2,2,2,1,-1,-1
20,49,69,34,9,60.0,1.0,105,10,7,4,7,5,0,0,-1,-2
21,52,76,38,4,63.0,2.0,95,10,14,8,2,2,2,1,1,-1
22,54,79,40,7,66.0,2.0,105,11,17,10,5,4,1,1,1,0
23,56,74,37,2,69.0,1.0,95,11,12,7,0,1,-2,-1,-1,-1
24,59,69,34,9,72.0,1.0,105,12,7,4,7,5,2,1,-1,-2
25,62,76,38,4,75.0,2.0,95,12,14,8,2,2,2,1,1,-1
26,64,76,38,4,78.0,1.0,105,13,14,8,2,2,7,4,0,-1
27,67,76,38,4,81.0,2.0,95,13,14,8,2,2,2,1,0,-1
28,69,71,35,11,84.0,1.0,105,14,9,5,9,6,2,1,-1,-2
29,72,67,33,7,87.0,1.0,95,14,5,3,5,4,-4,-2,-1,-3
30,75,79,40,7,90.0,2.0,105,15,17,10,5,4,5,3,1,-2
31,77,74,37,2,93.0,1.0,95,15,12,7,0,1,-2,-1,-1,-3
32,80,69,34,9,96.0,1.0,105,16,7,4,7,5,2,1,-1,-4
33,83,81,41,9,99.0,3.0,95,16,19,11,7,5,12,7,1,-3
34,84,79,40,7,102.0,1.0,105,17,17,10,5,4,-2,-1,-1,-4
35,87,81,41,9,105.0,2.0,95,17,19,11,7,5,5,3,1,-3
36,88,69,34,9,107.0,1.0,105,18,7,4,7,5,-12,-7,-1,-4
37,91,81,41,9,110.0,2.0,95,18,19,11,7,5,12,7,1,-3
38,93,79,40,7,113.0,2.0,105,19,17,10,5,4,1,1,-1,-4
39,95,74,37,2,116.0,1.0,95,19,12,7,0,1,-2,-1,-1,-5
40,98,69,34,9,119.0,1.0,105,20,7,4,7,5,2,1,-1,-6
41,101,81,41,9,122.0,3.0,95,20,19,11,7,5,12,7,1,-5
42,102,79,40,7,125.0,1.0,105,21,17,10,5,4,-2,-1,-1,-6
43,105,81,41,9,128.0,3.0,95,21,19,11,7,5,5,3,1,-5
44,106,79,40,7,131.0,2.0,105,22,17,10,5,4,-2,-1,-1,-6
45,108,74,37,2,134.0,1.0,95,22,12,7,0,1,-2,-1,-1,-7
46,111,76,38,4,137.0,1.0,105,23,14,8,2,2,2,1,1,-6
47,114,74,37,2,140.0,1.0,95,23,12,7,0,1,-2,-1,-1,-7
48,117,69,34,9,143.0,1.0,105,24,7,4,7,5,2,1,-1,-8
49,120,81,41,9,146.0,3.0,95,24,19,11,7,5,12,7,1,-7
50,121,79,40,7,149.0,1.0,105,25,17,10,5,4,-2,-1,-1,-8
51,124,81,41,9,152.0,2.0,95,25,19,11,7,5,5,3,1,-7
52,125,69,34,9,154.0,1.0,105,26,7,4,7,5,-12,-7,-1,-8
53,128,81,41,9,157.0,2.0,95,26,19,11,7,5,12,7,1,-7
54,130,79,40,7,160.0,2.0,105,27,17,10,5,4,1,1,-1,-8
55,132,74,37,2,163.0,1.0,95,27,12,7,0,1,-2,-1,-1,-9
56,135,69,34,9,166.0,1.0,105,28,7,4,7,5,2,1,-1,-10
57,138,81,41,9,169.0,3.0,95,28,19,11,7,5,12,7,1,-9
58,139,79,40,7,172.0,1.0,105,29,17,10,5,4,-2,-1,-1,-10
59,142,81,41,9,175.0,3.0,95,29,19,11,7,5,5,3,1,-9
60,143,79,40,7,178.0,2.0,105,30,17,10,5,4,-2,-1,-1,-10
61,145,74,37,2,181.0,1.0,95,30,12,7,0,1,-2,-1,-1,-11
62,148,76,38,4,184.0,1.0,105,31,14,8,2,2,2,1,1,-10
63,151,74,37,2,187.0,1.0,95,31,12,7,0,1,-2,-1,-1,-11
64,154,69,34,9,190.0,1.0,105,32,7,4,7,5,2,1,-1,-12
65,157,73,36,1,193.0,2.0,95,32,11,6,11,7,4,2,1,-11
66,159,74,37,2,196.0,2.0,105,33,12,7,0,1,5,3,1,-10
67,161,73,36,1,199.0,2.0,95,33,11,6,11,7,2,1,-1,-11
68,163,69,34,9,202.0,1.0,105,34,7,4,7,5,0,0,-1,-12
69,166,73,36,1,205.0,3.0,95,34,11,6,11,7,4,2,1,-11
70,167,69,34,9,208.0,1.0,95,34,7,4,7,5,-4,-2,-1,-12
71,168,74,37,2,209.0,2.0,105,35,12,7,0,1,5,3,1,-11
72,170,71,35,11,212.0,1.0,95,35,9,5,9,6,-2,-1,-1,-12
73,173,69,34,9,215.0,1.0,105,36,7,4,7,5,2,1,-1,-13
74,176,73,36,1,218.0,2.0,95,36,11,6,11,7,4,2,1,-12
75,178,74,37,2,221.0,2.0,105,37,12,7,0,1,5,3,1,-11
76,180,73,36,1,224.0,2.0,95,37,11,6,11,7,2,1,-1,-12
77,182,71,35,11,227.0,1.0,105,38,9,5,9,6,2,1,-1,-13
78,185,67,33,7,230.0,1.0,95,38,5,3,5,4,-4,-2,-1,-14
79,188,79,40,7,233.0,2.0,105,39,17,10,5,4,5,3,1,-13
80,190,74,37,2,236.0,1.0,95,39,12,7,0,1,-2,-1,-1,-14
81,193,69,34,9,239.0,1.0,105,40,7,4,7,5,2,1,-1,-15
82,196,73,36,1,242.0,2.0,95,40,11,6,11,7,4,2,1,-14
83,198,74,37,2,245.0,2.0,105,41,12,7,0,1,5,3,1,-13
84,200,73,36,1,248.0,2.0,95,41,11,6,11,7,2,1,-1,-14
85,202,69,34,9,251.0,1.0,105,42,7,4,7,5,0,0,-1,-15
86,205,73,36,1,254.0,3.0,95,42,11,6,11,7,4,2,1,-14
87,206,69,34,9,257.0,1.0,95,42,7,4,7,5,-4,-2,-1,-15
88,207,74,37,2,258.0,2.0,105,43,12,7,0,1,5,3,1,-14
89,209,71,35,11,261.0,1.0,95,43,9,5,9,6,-2,-1,-1,-15
90,212,69,34,9,264.0,1.0,105,44,7,4,7,5,2,1,-1,-16
91,215,73,36,1,267.0,2.0,95,44,11,6,11,7,4,2,1,-15
92,217,74,37,2,270.0,2.0,105,45,12,7,0,1,5,3,1,-14
93,219,73,36,1,273.0,2.0,95,45,11,6,11,7,2,1,-1,-15
94,221,71,35,11,276.0,1.0,105,46,9,5,9,6,2,1,-1,-16
95,224,67,33,7,279.0,1.0,95,46,5,3,5,4,-4,-2,-1,-17
96,227,79,40,7,282.0,2.0,105,47,17,10,5,4,5,3,1,-16
97,229,74,37,2,285.0,1.0,95,47,12,7,0,1,-2,-1,-1,-17
