,index,midi_note_num,diatonic_note_num,chromatic_pitch_class,onset,duration,velocity,bar_count,relative_chromatic_pitch,relative_diatonic_pitch,chromatic_scale_degree,diatonic_scale_degree,chromatic_interval,diatonic_interval,parsons_code,parsons_cumsum
0,1,71,35,11,1.0,0.5,105,0,9,5,9,6,0,0,0,0
1,5,73,36,1,5.0,1.0,95,0,11,6,11,7,4,2,1,1
2,9,66,32,6,9.0,0.5,105,1,4,2,4,3,-3,-2,-1,0
3,13,69,34,9,13.0,1.0,95,1,7,4,7,5,5,3,1,1
4,17,69,34,9,17.0,0.5,105,2,7,4,7,5,3,2,0,1
5,21,74,37,2,21.0,1.0,95,2,12,7,0,1,7,4,1,2
6,25,71,35,11,25.0,1.0,105,3,9,5,9,6,2,1,-1,1
7,29,67,33,7,29.0,1.0,95,3,5,3,5,4,5,3,-1,0
8,33,71,35,11,33.0,0.5,105,4,9,5,9,6,7,4,1,1
9,37,73,36,1,37.0,1.0,95,4,11,6,11,7,4,2,1,2
10,41,64,31,4,41.0,1.0,105,5,2,1,2,2,0,0,-1,1
11,45,69,34,9,45.0,1.0,95,5,7,4,7,5,0,0,1,2
12,49,67,33,7,49.0,1.0,105,6,5,3,5,4,1,1,-1,1
13,53,79,40,7,53.0,1.0,95,6,17,10,5,4,5,3,1,2
14,57,74,37,2,57.0,1.0,105,7,12,7,0,1,-2,-1,-1,1
15,61,69,34,9,61.0,3.0,95,7,7,4,7,5,-2,-1,-1,0
16,63,71,35,11,65.0,0.5,105,8,9,5,9,6,7,4,1,1
17,67,73,36,1,69.0,1.0,95,8,11,6,11,7,4,2,1,2
18,71,66,32,6,73.0,0.5,105,9,4,2,4,3,-3,-2,-1,1
19,75,69,34,9,77.0,1.0,95,9,7,4,7,5,5,3,1,2
20,79,69,34,9,81.0,0.5,105,10,7,4,7,5,3,2,0,2
21,83,74,37,2,85.0,1.0,95,10,12,7,0,1,7,4,1,3
22,87,71,35,11,89.0,1.0,105,11,9,5,9,6,2,1,-1,2
23,91,67,33,7,93.0,1.0,95,11,5,3,5,4,5,3,-1,1
24,95,71,35,11,97.0,0.5,105,12,9,5,9,6,7,4,1,2
25,99,73,36,1,101.0,1.0,95,12,11,6,11,7,4,2,1,3
26,103,64,31,4,105.0,1.0,105,13,2,1,2,2,0,0,-1,2
27,107,69,34,9,109.0,1.0,95,13,7,4,7,5,0,0,1,3
28,111,67,33,7,113.0,1.0,105,14,5,3,5,4,1,1,-1,2
29,115,79,40,7,117.0,1.0,95,14,17,10,5,4,5,3,1,3
30,119,74,37,2,121.0,1.0,105,15,12,7,0,1,-2,-1,-1,2
31,123,69,34,9,125.0,3.0,95,15,7,4,7,5,-2,-1,-1,1
32,125,83,42,11,129.0,0.5,105,16,21,12,9,6,-2,-1,1,2
33,129,73,36,1,133.0,1.0,95,16,11,6,11,7,-8,-5,-1,1
34,133,81,41,9,137.0,1.0,105,17,19,11,7,5,0,0,1,2
35,137,83,42,11,141.0,1.0,95,17,21,12,9,6,2,1,1,3
36,141,81,41,9,145.0,0.5,105,18,19,11,7,5,3,2,-1,2
37,145,71,35,11,149.0,1.0,95,18,9,5,9,6,-8,-5,-1,1
38,149,79,40,7,153.0,1.0,105,19,17,10,5,4,0,0,1,2
39,153,81,41,9,157.0,1.0,95,19,19,11,7,5,2,1,1,3
40,158,83,42,11,161.0,0.5,105,20,21,12,9,6,4,2,1,4
41,162,73,36,1,165.0,1.0,95,20,11,6,11,7,-8,-5,-1,3
42,166,83,42,11,169.0,0.5,105,21,21,12,9,6,2,1,1,4
43,170,83,42,11,173.0,1.0,95,21,21,12,9,6,2,1,0,4
44,174,79,40,7,177.0,1.0,105,22,17,10,5,4,1,1,-1,3
45,180,81,41,9,181.0,2.0,95,22,19,11,7,5,-2,-1,1,4
46,183,74,37,2,185.0,1.0,105,23,12,7,0,1,-2,-1,-1,3
47,187,69,34,9,189.0,3.0,95,23,7,4,7,5,-2,-1,-1,2
48,189,83,42,11,193.0,0.5,105,24,21,12,9,6,-2,-1,1,3
49,193,73,36,1,197.0,1.0,95,24,11,6,11,7,-8,-5,-1,2
50,197,81,41,9,201.0,1.0,105,25,19,11,7,5,0,0,1,3
51,201,83,42,11,205.0,1.0,95,25,21,12,9,6,2,1,1,4
52,205,81,41,9,209.0,0.5,105,26,19,11,7,5,3,2,-1,3
53,209,71,35,11,213.0,1.0,95,26,9,5,9,6,-8,-5,-1,2
54,213,79,40,7,217.0,1.0,105,27,17,10,5,4,0,0,1,3
55,217,81,41,9,221.0,1.0,95,27,19,11,7,5,2,1,1,4
56,222,83,42,11,225.0,0.5,105,28,21,12,9,6,4,2,1,5
57,226,73,36,1,229.0,1.0,95,28,11,6,11,7,-8,-5,-1,4
58,230,83,42,11,233.0,0.5,105,29,21,12,9,6,2,1,1,5
59,234,83,42,11,237.0,1.0,95,29,21,12,9,6,2,1,0,5
60,238,79,40,7,241.0,1.0,105,30,17,10,5,4,1,1,-1,4
61,244,81,41,9,245.0,1.0,95,30,19,11,7,5,-2,-1,1,5
62,248,73,36,1,249.0,1.0,105,31,11,6,11,7,-1,-1,-1,4
63,252,69,34,9,253.0,4.0,95,31,7,4,7,5,1,1,-1,3
64,253,76,38,4,257.0,1.0,105,32,14,8,2,2,7,4,1,4
65,259,74,37,2,261.0,1.0,95,32,12,7,0,1,1,1,-1,3
66,265,73,36,1,265.0,1.0,105,33,11,6,11,7,2,1,-1,2
67,269,81,41,9,269.0,1.0,95,33,19,11,7,5,5,3,1,3
68,273,67,33,7,273.0,1.0,105,34,5,3,5,4,-2,-1,-1,2
69,279,74,37,2,277.0,1.0,95,34,12,7,0,1,3,2,1,3
70,283,71,35,11,281.0,1.0,105,35,9,5,9,6,2,1,-1,2
71,287,67,33,7,285.0,1.0,95,35,5,3,5,4,5,3,-1,1
72,291,69,34,9,289.0,1.0,105,36,7,4,7,5,5,3,1,2
73,297,74,37,2,293.0,1.0,95,36,12,7,0,1,-2,-1,1,3
74,301,69,34,9,297.0,1.0,105,37,7,4,7,5,-2,-1,-1,2
75,305,69,34,9,301.0,1.0,95,37,7,4,7,5,5,3,0,2
76,309,76,38,4,305.0,1.0,105,38,14,8,2,2,2,1,1,3
77,313,80,40,8,309.0,1.0,95,38,18,10,6,4,2,1,1,4
78,317,73,36,1,313.0,1.0,105,39,11,6,11,7,2,1,-1,3
79,321,69,34,9,317.0,4.0,95,39,7,4,7,5,-2,-1,-1,2
80,322,76,38,4,321.0,1.0,105,40,14,8,2,2,7,4,1,3
81,328,74,37,2,325.0,1.0,95,40,12,7,0,1,1,1,-1,2
82,334,73,36,1,329.0,1.0,105,41,11,6,11,7,2,1,-1,1
83,338,81,41,9,333.0,1.0,95,41,19,11,7,5,5,3,1,2
84,342,67,33,7,337.0,1.0,105,42,5,3,5,4,-2,-1,-1,1
85,348,74,37,2,341.0,1.0,95,42,12,7,0,1,3,2,1,2
86,352,71,35,11,345.0,1.0,105,43,9,5,9,6,2,1,-1,1
87,356,67,33,7,349.0,1.0,95,43,5,3,5,4,5,3,-1,0
88,360,69,34,9,353.0,1.0,105,44,7,4,7,5,5,3,1,1
89,366,74,37,2,357.0,1.0,95,44,12,7,0,1,-2,-1,1,2
90,370,69,34,9,361.0,1.0,105,45,7,4,7,5,-2,-1,-1,1
91,374,69,34,9,365.0,1.0,95,45,7,4,7,5,5,3,0,1
92,378,76,38,4,369.0,1.0,105,46,14,8,2,2,2,1,1,2
93,382,80,40,8,373.0,1.0,95,46,18,10,6,4,2,1,1,3
94,386,73,36,1,377.0,1.0,105,47,11,6,11,7,2,1,-1,2
95,390,69,34,9,381.0,4.0,95,47,7,4,7,5,-2,-1,-1,1
96,391,76,38,4,385.0,1.0,105,48,14,8,2,2,7,4,1,2
97,397,85,43,1,389.0,1.0,95,48,23,13,11,7,4,2,1,3
98,403,76,38,4,393.0,1.0,105,49,14,8,2,2,-5,-3,-1,2
99,407,81,41,9,397.0,1.0,95,49,19,11,7,5,-2,-1,1,3
100,411,76,38,4,401.0,1.0,105,50,14,8,2,2,2,1,-1,2
101,417,83,42,11,405.0,1.0,95,50,21,12,9,6,4,2,1,3
102,423,78,39,6,409.0,0.5,105,51,16,9,4,3,-1,-1,-1,2
103,427,79,40,7,413.0,1.0,95,51,17,10,5,4,3,2,1,3
104,431,76,38,4,417.0,1.0,105,52,14,8,2,2,0,0,-1,2
105,437,85,43,1,421.0,1.0,95,52,23,13,11,7,4,2,1,3
106,443,76,38,4,425.0,1.0,105,53,14,8,2,2,-5,-3,-1,2
107,447,81,41,9,429.0,1.0,95,53,19,11,7,5,-2,-1,1,3
108,451,76,38,4,433.0,1.0,105,54,14,8,2,2,2,1,-1,2
109,455,83,42,11,437.0,0.5,95,54,21,12,9,6,0,0,1,3
110,459,74,37,2,441.0,1.0,105,55,12,7,0,1,-2,-1,-1,2
111,463,69,34,9,445.0,4.0,95,55,7,4,7,5,-2,-1,-1,1
112,464,76,38,4,449.0,1.0,105,56,14,8,2,2,7,4,1,2
113,470,85,43,1,453.0,1.0,95,56,23,13,11,7,4,2,1,3
114,476,76,38,4,457.0,1.0,105,57,14,8,2,2,-5,-3,-1,2
115,480,81,41,9,461.0,1.0,95,57,19,11,7,5,-2,-1,1,3
116,484,76,38,4,465.0,1.0,105,58,14,8,2,2,2,1,-1,2
117,490,83,42,11,469.0,1.0,95,58,21,12,9,6,4,2,1,3
118,496,78,39,6,473.0,0.5,105,59,16,9,4,3,-1,-1,-1,2
119,500,79,40,7,477.0,1.0,95,59,17,10,5,4,3,2,1,3
120,504,76,38,4,481.0,1.0,105,60,14,8,2,2,0,0,-1,2
121,510,85,43,1,485.0,1.0,95,60,23,13,11,7,4,2,1,3
122,516,76,38,4,489.0,1.0,105,61,14,8,2,2,-5,-3,-1,2
123,520,81,41,9,493.0,1.0,95,61,19,11,7,5,-2,-1,1,3
124,524,76,38,4,497.0,1.0,105,62,14,8,2,2,2,1,-1,2
125,528,83,42,11,501.0,0.5,95,62,21,12,9,6,0,0,1,3
126,532,74,37,2,505.0,1.0,105,63,12,7,0,1,-2,-1,-1,2
127,536,69,34,9,509.0,4.0,95,63,7,4,7,5,-2,-1,-1,1
128,537,73,36,1,513.0,1.0,105,64,11,6,11,7,4,2,1,2
129,541,75,38,3,517.0,1.0,95,64,13,8,1,2,-1,0,1,3
130,545,73,36,1,521.0,1.0,105,65,11,6,11,7,2,1,-1,2
131,549,69,34,9,525.0,1.0,95,65,7,4,7,5,5,3,-1,1
