,index,midi_note_num,diatonic_note_num,chromatic_pitch_class,onset,duration,velocity,bar_count,relative_chromatic_pitch,relative_diatonic_pitch,chromatic_scale_degree,diatonic_scale_degree,chromatic_interval,diatonic_interval,parsons_code,parsons_cumsum
0,2,71,35,11,2.0,1.0,105,0,4,2,4,3,0,0,0,0
1,6,62,30,2,6.0,1.0,95,0,-5,-3,7,5,-5,-3,-1,-1
2,10,71,35,11,10.0,0.67,105,1,4,2,4,3,4,2,1,0
3,15,79,40,7,14.0,1.0,95,1,12,7,0,1,-2,-1,1,1
4,19,69,34,9,18.0,1.0,105,2,2,1,2,2,2,1,-1,0
5,23,60,29,0,22.0,1.0,95,2,-7,-4,5,4,-5,-3,-1,-1
6,27,69,34,9,26.0,0.67,105,3,2,1,2,2,4,2,1,0
7,32,78,39,6,30.0,1.0,95,3,11,6,11,7,-1,-1,1,1
8,36,71,35,11,34.0,1.0,105,4,4,2,4,3,2,1,-1,0
9,40,66,32,6,38.0,1.0,95,4,-1,-1,11,7,0,0,-1,-1
10,44,71,35,11,42.0,1.0,105,5,4,2,4,3,4,2,1,0
11,48,67,33,7,46.0,1.0,95,5,0,0,0,1,5,3,-1,-1
12,52,74,37,2,50.0,1.0,105,6,7,4,7,5,2,1,1,0
13,56,79,40,7,54.0,2.0,95,6,12,7,0,1,1,1,1,1
14,59,78,39,6,58.0,1.0,105,7,11,6,11,7,-1,-1,-1,0
15,63,67,33,7,62.0,3.0,95,7,0,0,0,1,-2,-1,-1,-1
16,65,71,35,11,66.0,1.0,105,8,4,2,4,3,2,1,1,0
17,69,62,30,2,70.0,1.0,95,8,-5,-3,7,5,-5,-3,-1,-1
18,73,71,35,11,74.0,0.67,105,9,4,2,4,3,4,2,1,0
19,78,79,40,7,78.0,1.0,95,9,12,7,0,1,-2,-1,1,1
20,82,69,34,9,82.0,1.0,105,10,2,1,2,2,2,1,-1,0
21,86,60,29,0,86.0,1.0,95,10,-7,-4,5,4,-5,-3,-1,-1
22,90,69,34,9,90.0,0.67,105,11,2,1,2,2,4,2,1,0
23,95,78,39,6,94.0,1.0,95,11,11,6,11,7,-1,-1,1,1
24,99,71,35,11,98.0,1.0,105,12,4,2,4,3,2,1,-1,0
25,103,66,32,6,102.0,1.0,95,12,-1,-1,11,7,0,0,-1,-1
26,107,71,35,11,106.0,1.0,105,13,4,2,4,3,4,2,1,0
27,111,67,33,7,110.0,1.0,95,13,0,0,0,1,5,3,-1,-1
28,115,74,37,2,114.0,1.0,105,14,7,4,7,5,2,1,1,0
29,119,79,40,7,118.0,2.0,95,14,12,7,0,1,1,1,1,1
30,122,78,39,6,122.0,1.0,105,15,11,6,11,7,-1,-1,-1,0
31,126,67,33,7,126.0,3.0,95,15,0,0,0,1,-2,-1,-1,-1
32,128,74,37,2,130.0,1.0,105,16,7,4,7,5,3,2,1,0
33,132,79,40,7,134.0,1.0,95,16,12,7,0,1,0,0,1,1
34,136,79,40,7,138.0,1.0,105,17,12,7,0,1,-2,-1,0,1
35,140,71,35,11,142.0,1.0,95,17,4,2,4,3,-3,-2,-1,0
36,144,69,34,9,146.0,3.0,105,18,2,1,2,2,2,1,-1,-1
37,146,81,41,9,150.0,1.0,95,18,14,8,2,2,2,1,1,0
38,150,79,40,7,154.0,2.0,105,19,12,7,0,1,-2,-1,-1,-1
39,153,78,39,6,158.0,1.0,95,19,11,6,11,7,-1,-1,-1,-2
40,157,74,37,2,162.0,1.0,105,20,7,4,7,5,5,3,-1,-3
41,161,81,41,9,166.0,1.0,95,20,14,8,2,2,2,1,1,-2
42,165,79,40,7,170.0,1.0,105,21,12,7,0,1,-2,-1,-1,-3
43,169,71,35,11,174.0,1.0,95,21,4,2,4,3,-3,-2,-1,-4
44,173,69,34,9,178.0,1.0,105,22,2,1,2,2,-3,-2,-1,-5
45,177,78,39,6,182.0,1.0,95,22,11,6,11,7,-1,-1,1,-4
46,180,78,39,6,186.0,1.0,105,23,11,6,11,7,-1,-1,0,-4
47,184,67,33,7,190.0,3.0,95,23,0,0,0,1,-2,-1,-1,-5
48,186,74,37,2,194.0,1.0,105,24,7,4,7,5,3,2,1,-4
49,190,79,40,7,198.0,1.0,95,24,12,7,0,1,0,0,1,-3
50,194,79,40,7,202.0,1.0,105,25,12,7,0,1,-2,-1,0,-3
51,198,71,35,11,206.0,1.0,95,25,4,2,4,3,-3,-2,-1,-4
52,202,69,34,9,210.0,3.0,105,26,2,1,2,2,2,1,-1,-5
53,204,81,41,9,214.0,1.0,95,26,14,8,2,2,2,1,1,-4
54,208,79,40,7,218.0,2.0,105,27,12,7,0,1,-2,-1,-1,-5
55,211,78,39,6,222.0,1.0,95,27,11,6,11,7,-1,-1,-1,-6
56,215,74,37,2,226.0,1.0,105,28,7,4,7,5,5,3,-1,-7
57,219,81,41,9,230.0,1.0,95,28,14,8,2,2,2,1,1,-6
58,223,79,40,7,234.0,1.0,105,29,12,7,0,1,-2,-1,-1,-7
59,227,71,35,11,238.0,1.0,95,29,4,2,4,3,-3,-2,-1,-8
60,231,69,34,9,242.0,1.0,105,30,2,1,2,2,-3,-2,-1,-9
61,235,78,39,6,246.0,1.0,95,30,11,6,11,7,-1,-1,1,-8
62,238,78,39,6,250.0,1.0,105,31,11,6,11,7,-1,-1,0,-8
63,242,67,33,7,254.0,1.0,95,31,0,0,0,1,-2,-1,-1,-9
64,246,67,33,7,258.0,2.0,105,32,0,0,0,1,-5,-3,0,-9
65,249,71,35,11,262.0,1.0,95,32,4,2,4,3,4,2,1,-8
66,253,69,34,9,266.0,1.0,105,33,2,1,2,2,-3,-2,-1,-9
67,257,72,36,0,270.0,1.0,95,33,5,3,5,4,7,4,1,-8
68,261,67,33,7,274.0,2.0,105,34,0,0,0,1,2,1,-1,-9
69,264,71,35,11,278.0,1.0,95,34,4,2,4,3,4,2,1,-8
70,268,78,39,6,282.0,1.0,105,35,11,6,11,7,-1,-1,1,-7
71,272,78,39,6,286.0,1.0,95,35,11,6,11,7,-1,-1,0,-7
72,276,67,33,7,290.0,2.0,105,36,0,0,0,1,-2,-1,-1,-8
73,279,71,35,11,294.0,1.0,95,36,4,2,4,3,4,2,1,-7
74,283,69,34,9,298.0,1.0,105,37,2,1,2,2,-3,-2,-1,-8
75,287,72,36,0,302.0,1.0,95,37,5,3,5,4,7,4,1,-7
76,291,67,33,7,306.0,2.0,105,38,0,0,0,1,2,1,-1,-8
77,294,71,35,11,310.0,1.0,95,38,4,2,4,3,4,2,1,-7
78,298,78,39,6,314.0,1.0,105,39,11,6,11,7,-1,-1,1,-6
79,302,67,33,7,318.0,3.0,95,39,0,0,0,1,-2,-1,-1,-7
80,304,67,33,7,322.0,2.0,105,40,0,0,0,1,1,1,0,-7
81,307,71,35,11,326.0,1.0,95,40,4,2,4,3,4,2,1,-6
82,311,69,34,9,330.0,1.0,105,41,2,1,2,2,-3,-2,-1,-7
83,315,72,36,0,334.0,1.0,95,41,5,3,5,4,7,4,1,-6
84,319,67,33,7,338.0,2.0,105,42,0,0,0,1,2,1,-1,-7
85,322,71,35,11,342.0,1.0,95,42,4,2,4,3,4,2,1,-6
86,326,78,39,6,346.0,1.0,105,43,11,6,11,7,-1,-1,1,-5
87,330,78,39,6,350.0,1.0,95,43,11,6,11,7,-1,-1,0,-5
88,334,67,33,7,354.0,2.0,105,44,0,0,0,1,-2,-1,-1,-6
89,337,71,35,11,358.0,1.0,95,44,4,2,4,3,4,2,1,-5
90,341,69,34,9,362.0,1.0,105,45,2,1,2,2,-3,-2,-1,-6
91,345,72,36,0,366.0,1.0,95,45,5,3,5,4,7,4,1,-5
92,349,67,33,7,370.0,2.0,105,46,0,0,0,1,2,1,-1,-6
93,352,71,35,11,374.0,1.0,95,46,4,2,4,3,4,2,1,-5
94,356,78,39,6,378.0,1.0,105,47,11,6,11,7,-1,-1,1,-4
95,360,67,33,7,382.0,3.0,95,47,0,0,0,1,-2,-1,-1,-5
