,index,midi_note_num,diatonic_note_num,chromatic_pitch_class,onset,duration,velocity,bar_count,relative_chromatic_pitch,relative_diatonic_pitch,chromatic_scale_degree,diatonic_scale_degree,chromatic_interval,diatonic_interval,parsons_code,parsons_cumsum
0,0,67,33,7,0.0,2.0,105,0,0,0,0,1,0,0,0,0
1,3,71,35,11,4.0,1.0,95,0,4,2,4,3,4,2,1,1
2,7,67,33,7,8.0,2.0,105,1,0,0,0,1,0,0,-1,0
3,10,67,33,7,12.0,1.0,95,1,0,0,0,1,0,0,0,0
4,14,65,32,5,16.0,2.0,105,2,-2,-1,10,7,1,1,-1,-1
5,17,69,34,9,20.0,1.0,95,2,2,1,2,2,4,2,1,0
6,21,65,32,5,24.0,2.0,105,3,-2,-1,10,7,0,0,-1,-1
7,24,65,32,5,28.0,1.0,95,3,-2,-1,10,7,0,0,0,-1
8,28,67,33,7,32.0,2.0,105,4,0,0,0,1,3,2,1,0
9,31,71,35,11,36.0,1.0,95,4,4,2,4,3,4,2,1,1
10,35,67,33,7,40.0,2.0,105,5,0,0,0,1,0,0,-1,0
11,38,67,33,7,44.0,1.0,95,5,0,0,0,1,0,0,0,0
12,42,65,32,5,48.0,1.0,105,6,-2,-1,10,7,1,1,-1,-1
13,46,77,39,5,52.0,1.0,95,6,10,6,10,7,5,3,1,0
14,50,72,36,0,56.0,1.0,105,7,5,3,5,4,-2,-1,-1,-1
15,54,67,33,7,60.0,1.0,95,7,0,0,0,1,-2,-1,-1,-2
16,58,67,33,7,64.0,2.0,105,8,0,0,0,1,1,1,0,-2
17,61,71,35,11,68.0,1.0,95,8,4,2,4,3,4,2,1,-1
18,65,67,33,7,72.0,2.0,105,9,0,0,0,1,0,0,-1,-2
19,68,67,33,7,76.0,1.0,95,9,0,0,0,1,0,0,0,-2
20,72,65,32,5,80.0,2.0,105,10,-2,-1,10,7,1,1,-1,-3
21,75,69,34,9,84.0,1.0,95,10,2,1,2,2,4,2,1,-2
22,79,65,32,5,88.0,2.0,105,11,-2,-1,10,7,0,0,-1,-3
23,82,65,32,5,92.0,1.0,95,11,-2,-1,10,7,0,0,0,-3
24,86,67,33,7,96.0,2.0,105,12,0,0,0,1,3,2,1,-2
25,89,71,35,11,100.0,1.0,95,12,4,2,4,3,4,2,1,-1
26,93,67,33,7,104.0,2.0,105,13,0,0,0,1,0,0,-1,-2
27,96,67,33,7,108.0,1.0,95,13,0,0,0,1,0,0,0,-2
28,100,65,32,5,112.0,1.0,105,14,-2,-1,10,7,1,1,-1,-3
29,104,77,39,5,116.0,1.0,95,14,10,6,10,7,5,3,1,-2
30,108,72,36,0,120.0,1.0,105,15,5,3,5,4,-2,-1,-1,-3
31,112,67,33,7,124.0,2.0,95,15,0,0,0,1,-2,-1,-1,-4
32,115,79,40,7,128.0,2.0,105,16,12,7,0,1,5,3,1,-3
33,118,79,40,7,132.0,1.0,95,16,12,7,0,1,0,0,0,-3
34,122,79,40,7,136.0,2.0,105,17,12,7,0,1,1,1,0,-3
35,125,79,40,7,140.0,1.0,95,17,12,7,0,1,1,1,0,-3
36,129,77,39,5,144.0,2.0,105,18,10,6,10,7,1,1,-1,-4
37,132,69,34,9,148.0,1.0,95,18,2,1,2,2,-8,-5,-1,-5
38,136,77,39,5,152.0,1.0,105,19,10,6,10,7,0,0,1,-4
39,140,79,40,7,156.0,1.0,95,19,12,7,0,1,2,1,1,-3
40,144,79,40,7,160.0,2.0,105,20,12,7,0,1,2,1,0,-3
41,147,79,40,7,164.0,1.0,95,20,12,7,0,1,1,1,0,-3
42,151,79,40,7,168.0,2.0,105,21,12,7,0,1,1,1,0,-3
43,154,79,40,7,172.0,1.0,95,21,12,7,0,1,0,0,0,-3
44,158,77,39,5,176.0,2.0,105,22,10,6,10,7,1,1,-1,-4
45,161,79,40,7,180.0,1.0,95,22,12,7,0,1,1,1,1,-3
46,165,71,35,11,184.0,1.0,105,23,4,2,4,3,-1,-1,-1,-4
47,169,67,33,7,188.0,2.0,95,23,0,0,0,1,1,1,-1,-5
48,172,67,33,7,192.0,1.0,105,24,0,0,0,1,1,1,0,-5
49,176,72,36,0,196.0,1.0,95,24,5,3,5,4,-2,-1,1,-4
50,180,67,33,7,200.0,2.0,105,25,0,0,0,1,0,0,-1,-5
51,183,79,40,7,204.0,1.0,95,25,12,7,0,1,5,3,1,-4
52,187,65,32,5,208.0,2.0,105,26,-2,-1,10,7,-2,-1,-1,-5
53,190,60,29,0,212.0,1.0,95,26,-7,-4,5,4,-5,-3,-1,-6
54,194,65,32,5,216.0,2.0,105,27,-2,-1,10,7,0,0,1,-5
55,197,62,30,2,220.0,1.0,95,27,-5,-3,7,5,-3,-2,-1,-6
56,201,67,33,7,224.0,1.0,105,28,0,0,0,1,1,1,1,-5
57,205,72,36,0,228.0,1.0,95,28,5,3,5,4,-2,-1,1,-4
58,209,67,33,7,232.0,2.0,105,29,0,0,0,1,0,0,-1,-5
59,212,67,33,7,236.0,1.0,95,29,0,0,0,1,5,3,0,-5
60,216,74,37,2,240.0,1.0,105,30,7,4,7,5,2,1,1,-4
61,219,78,39,6,244.0,1.0,95,30,11,6,11,7,-1,-1,1,-3
62,223,71,35,11,248.0,1.0,105,31,4,2,4,3,2,1,-1,-4
63,227,67,33,7,252.0,2.0,95,31,0,0,0,1,1,1,-1,-5
64,230,74,37,2,256.0,1.0,105,32,7,4,7,5,2,1,1,-4
65,233,81,41,9,260.0,1.0,95,32,14,8,2,2,2,1,1,-3
66,236,74,37,2,264.0,1.0,105,33,7,4,7,5,-5,-3,-1,-4
67,240,74,37,2,268.0,1.0,95,33,7,4,7,5,-4,-2,0,-4
68,244,74,37,2,272.0,1.0,105,34,7,4,7,5,2,1,0,-4
69,248,81,41,9,276.0,1.0,95,34,14,8,2,2,2,1,1,-3
70,252,79,40,7,280.0,1.0,105,35,12,7,0,1,5,3,-1,-4
71,256,78,39,6,284.0,1.0,95,35,11,6,11,7,-1,-1,-1,-5
72,260,74,37,2,288.0,1.0,105,36,7,4,7,5,5,3,-1,-6
73,263,81,41,9,292.0,1.0,95,36,14,8,2,2,2,1,1,-5
74,266,74,37,2,296.0,1.0,105,37,7,4,7,5,-5,-3,-1,-6
75,270,74,37,2,300.0,1.0,95,37,7,4,7,5,-4,-2,0,-6
76,274,74,37,2,304.0,1.0,105,38,7,4,7,5,2,1,0,-6
77,278,79,40,7,308.0,1.0,95,38,12,7,0,1,-2,-1,1,-5
78,282,71,35,11,312.0,1.0,105,39,4,2,4,3,-1,-1,-1,-6
79,286,67,33,7,316.0,4.0,95,39,0,0,0,1,1,1,-1,-7
