,index,midi_note_num,diatonic_note_num,chromatic_pitch_class,onset,duration,velocity,bar_count,relative_chromatic_pitch,relative_diatonic_pitch,chromatic_scale_degree,diatonic_scale_degree,chromatic_interval,diatonic_interval,parsons_code,parsons_cumsum
0,0,64,31,4,0.0,1.0,105,0,2,1,2,2,0,0,0,0
1,3,64,31,4,3.0,1.0,95,0,2,1,2,2,-9,-5,0,0
2,6,69,34,9,6.0,1.0,105,1,7,4,7,5,-2,-1,1,1
3,9,69,34,9,9.0,1.0,95,1,7,4,7,5,-2,-1,0,1
4,12,64,31,4,12.0,1.0,105,2,2,1,2,2,0,0,-1,0
5,15,64,31,4,15.0,1.0,95,2,2,1,2,2,-9,-5,0,0
6,18,69,34,9,18.0,1.0,105,3,7,4,7,5,-2,-1,1,1
7,21,69,34,9,21.0,1.0,95,3,7,4,7,5,0,0,0,1
8,24,64,31,4,24.0,1.0,105,4,2,1,2,2,0,0,-1,0
9,27,64,31,4,27.0,1.0,95,4,2,1,2,2,-9,-5,0,0
10,30,69,34,9,30.0,1.0,105,5,7,4,7,5,-2,-1,1,1
11,33,74,37,2,33.0,2.0,95,5,12,7,0,1,1,1,1,2
12,35,76,38,4,36.0,1.0,105,6,14,8,2,2,-2,-1,1,3
13,38,71,35,11,39.0,1.0,95,6,9,5,9,6,2,1,-1,2
14,41,69,34,9,42.0,1.0,105,7,7,4,7,5,3,2,-1,1
15,44,64,31,4,45.0,3.0,95,7,2,1,2,2,0,0,-1,0
16,45,64,31,4,48.0,1.0,105,8,2,1,2,2,0,0,0,0
17,48,64,31,4,51.0,1.0,95,8,2,1,2,2,-9,-5,0,0
18,51,69,34,9,54.0,1.0,105,9,7,4,7,5,-2,-1,1,1
19,54,69,34,9,57.0,1.0,95,9,7,4,7,5,-2,-1,0,1
20,57,64,31,4,60.0,1.0,105,10,2,1,2,2,0,0,-1,0
21,60,64,31,4,63.0,1.0,95,10,2,1,2,2,-9,-5,0,0
22,63,69,34,9,66.0,1.0,105,11,7,4,7,5,-2,-1,1,1
23,66,69,34,9,69.0,1.0,95,11,7,4,7,5,0,0,0,1
24,69,64,31,4,72.0,1.0,105,12,2,1,2,2,0,0,-1,0
25,72,64,31,4,75.0,1.0,95,12,2,1,2,2,-9,-5,0,0
26,75,69,34,9,78.0,1.0,105,13,7,4,7,5,-2,-1,1,1
27,78,74,37,2,81.0,2.0,95,13,12,7,0,1,1,1,1,2
28,80,76,38,4,84.0,1.0,105,14,14,8,2,2,-2,-1,1,3
29,83,71,35,11,87.0,1.0,95,14,9,5,9,6,2,1,-1,2
30,86,69,34,9,90.0,1.0,105,15,7,4,7,5,3,2,-1,1
31,89,64,31,4,93.0,3.0,95,15,2,1,2,2,0,0,-1,0
32,90,73,36,1,96.0,1.0,105,16,11,6,11,7,9,5,1,1
33,93,64,31,4,99.0,2.0,95,16,2,1,2,2,-2,-1,-1,0
34,95,69,34,9,102.0,1.0,105,17,7,4,7,5,3,2,1,1
35,98,71,35,11,105.0,1.0,95,17,9,5,9,6,-2,-1,1,2
36,101,73,36,1,108.0,1.0,105,18,11,6,11,7,2,1,1,3
37,104,64,31,4,111.0,1.0,95,18,2,1,2,2,-2,-1,-1,2
38,107,69,34,9,114.0,1.0,105,19,7,4,7,5,0,0,1,3
39,110,69,34,9,117.0,1.0,95,19,7,4,7,5,0,0,0,3
40,113,73,36,1,120.0,1.0,105,20,11,6,11,7,9,5,1,4
41,116,64,31,4,123.0,2.0,95,20,2,1,2,2,-2,-1,-1,3
42,118,69,34,9,126.0,1.0,105,21,7,4,7,5,3,2,1,4
43,121,74,37,2,129.0,2.0,95,21,12,7,0,1,1,1,1,5
44,123,76,38,4,132.0,1.0,105,22,14,8,2,2,-2,-1,1,6
45,126,71,35,11,135.0,1.0,95,22,9,5,9,6,2,1,-1,5
46,129,69,34,9,138.0,1.0,105,23,7,4,7,5,3,2,-1,4
47,132,69,34,9,141.0,1.0,95,23,7,4,7,5,0,0,0,4
48,135,73,36,1,144.0,1.0,105,24,11,6,11,7,9,5,1,5
49,138,64,31,4,147.0,2.0,95,24,2,1,2,2,-2,-1,-1,4
50,140,69,34,9,150.0,1.0,105,25,7,4,7,5,3,2,1,5
51,143,71,35,11,153.0,1.0,95,25,9,5,9,6,-2,-1,1,6
52,146,73,36,1,156.0,1.0,105,26,11,6,11,7,2,1,1,7
53,149,64,31,4,159.0,1.0,95,26,2,1,2,2,-2,-1,-1,6
54,152,69,34,9,162.0,1.0,105,27,7,4,7,5,0,0,1,7
55,155,69,34,9,165.0,1.0,95,27,7,4,7,5,0,0,0,7
56,158,73,36,1,168.0,1.0,105,28,11,6,11,7,9,5,1,8
57,161,64,31,4,171.0,2.0,95,28,2,1,2,2,-2,-1,-1,7
58,163,69,34,9,174.0,1.0,105,29,7,4,7,5,3,2,1,8
59,166,74,37,2,177.0,2.0,95,29,12,7,0,1,1,1,1,9
60,168,76,38,4,180.0,1.0,105,30,14,8,2,2,-2,-1,1,10
61,171,71,35,11,183.0,1.0,95,30,9,5,9,6,2,1,-1,9
62,174,69,34,9,186.0,1.0,105,31,7,4,7,5,3,2,-1,8
63,177,69,34,9,189.0,1.0,95,31,7,4,7,5,0,0,0,8
64,180,69,34,9,192.0,1.0,105,32,7,4,7,5,5,3,0,8
65,183,69,34,9,195.0,1.0,95,32,7,4,7,5,0,0,0,8
66,186,69,34,9,198.0,1.0,105,33,7,4,7,5,0,0,0,8
67,189,78,39,6,201.0,1.0,95,33,16,9,4,3,2,1,1,9
68,192,71,35,11,204.0,1.0,105,34,9,5,9,6,-2,-1,-1,8
69,195,71,35,11,207.0,1.0,95,34,9,5,9,6,0,0,0,8
70,198,69,34,9,210.0,1.0,105,35,7,4,7,5,-2,-1,-1,7
71,201,69,34,9,213.0,1.0,95,35,7,4,7,5,0,0,0,7
72,204,69,34,9,216.0,1.0,105,36,7,4,7,5,5,3,0,7
73,207,69,34,9,219.0,1.0,95,36,7,4,7,5,0,0,0,7
74,210,69,34,9,222.0,1.0,105,37,7,4,7,5,0,0,0,7
75,213,81,41,9,225.0,3.0,95,37,19,11,7,5,5,3,1,8
76,214,78,39,6,228.0,1.0,105,38,16,9,4,3,-3,-2,-1,7
77,217,71,35,11,231.0,1.0,95,38,9,5,9,6,-2,-1,-1,6
78,220,69,34,9,234.0,1.0,105,39,7,4,7,5,-2,-1,-1,5
79,223,69,34,9,237.0,1.0,95,39,7,4,7,5,0,0,0,5
80,226,69,34,9,240.0,1.0,105,40,7,4,7,5,5,3,0,5
81,229,69,34,9,243.0,1.0,95,40,7,4,7,5,0,0,0,5
82,232,69,34,9,246.0,1.0,105,41,7,4,7,5,0,0,0,5
83,235,78,39,6,249.0,1.0,95,41,16,9,4,3,2,1,1,6
84,238,71,35,11,252.0,1.0,105,42,9,5,9,6,-2,-1,-1,5
85,241,71,35,11,255.0,1.0,95,42,9,5,9,6,0,0,0,5
86,244,69,34,9,258.0,1.0,105,43,7,4,7,5,-2,-1,-1,4
87,247,69,34,9,261.0,1.0,95,43,7,4,7,5,0,0,0,4
88,250,69,34,9,264.0,1.0,105,44,7,4,7,5,5,3,0,4
89,253,69,34,9,267.0,1.0,95,44,7,4,7,5,0,0,0,4
90,256,69,34,9,270.0,1.0,105,45,7,4,7,5,0,0,0,4
91,259,81,41,9,273.0,3.0,95,45,19,11,7,5,5,3,1,5
92,260,78,39,6,276.0,1.0,105,46,16,9,4,3,-3,-2,-1,4
93,263,71,35,11,279.0,1.0,95,46,9,5,9,6,-2,-1,-1,3
94,266,69,34,9,282.0,1.0,105,47,7,4,7,5,-2,-1,-1,2
95,269,69,34,9,285.0,1.0,95,47,7,4,7,5,0,0,0,2
96,272,73,36,1,288.0,1.0,105,48,11,6,11,7,4,2,1,3
97,275,81,41,9,291.0,1.0,95,48,19,11,7,5,5,3,1,4
98,278,78,39,6,294.0,1.0,105,49,16,9,4,3,2,1,-1,3
99,281,81,41,9,297.0,1.0,95,49,19,11,7,5,5,3,1,4
100,284,73,36,1,300.0,1.0,105,50,11,6,11,7,-3,-2,-1,3
101,287,78,39,6,303.0,1.0,95,50,16,9,4,3,2,1,1,4
102,290,69,34,9,306.0,1.0,105,51,7,4,7,5,-4,-2,-1,3
103,293,69,34,9,309.0,1.0,95,51,7,4,7,5,0,0,0,3
104,296,73,36,1,312.0,1.0,105,52,11,6,11,7,4,2,1,4
105,299,81,41,9,315.0,1.0,95,52,19,11,7,5,5,3,1,5
106,302,78,39,6,318.0,1.0,105,53,16,9,4,3,2,1,-1,4
107,305,81,41,9,321.0,3.0,95,53,19,11,7,5,3,2,1,5
108,306,78,39,6,324.0,1.0,105,54,16,9,4,3,-3,-2,-1,4
109,309,69,34,9,327.0,1.0,95,54,7,4,7,5,-4,-2,-1,3
110,312,69,34,9,330.0,1.0,105,55,7,4,7,5,0,0,0,3
111,315,69,34,9,333.0,1.0,95,55,7,4,7,5,0,0,0,3
112,318,73,36,1,336.0,1.0,105,56,11,6,11,7,4,2,1,4
113,321,81,41,9,339.0,1.0,95,56,19,11,7,5,5,3,1,5
114,324,78,39,6,342.0,1.0,105,57,16,9,4,3,2,1,-1,4
115,327,81,41,9,345.0,1.0,95,57,19,11,7,5,5,3,1,5
116,330,73,36,1,348.0,1.0,105,58,11,6,11,7,-3,-2,-1,4
117,333,78,39,6,351.0,1.0,95,58,16,9,4,3,2,1,1,5
118,336,69,34,9,354.0,1.0,105,59,7,4,7,5,-4,-2,-1,4
119,339,69,34,9,357.0,1.0,95,59,7,4,7,5,0,0,0,4
120,342,73,36,1,360.0,1.0,105,60,11,6,11,7,4,2,1,5
121,345,81,41,9,363.0,1.0,95,60,19,11,7,5,5,3,1,6
122,348,78,39,6,366.0,1.0,105,61,16,9,4,3,2,1,-1,5
123,351,81,41,9,369.0,3.0,95,61,19,11,7,5,3,2,1,6
124,352,78,39,6,372.0,1.0,105,62,16,9,4,3,-3,-2,-1,5
125,355,69,34,9,375.0,1.0,95,62,7,4,7,5,-4,-2,-1,4
126,358,69,34,9,378.0,1.0,105,63,7,4,7,5,0,0,0,4
127,361,69,34,9,381.0,1.0,95,63,7,4,7,5,0,0,0,4
128,364,73,36,1,384.0,1.0,105,64,11,6,11,7,9,5,1,5
129,367,71,35,11,387.0,1.0,95,64,9,5,9,6,2,1,-1,4
130,370,73,36,1,390.0,1.0,105,65,11,6,11,7,4,2,1,5
131,373,74,37,2,393.0,1.0,95,65,12,7,0,1,5,3,1,6
132,376,73,36,1,396.0,1.0,105,66,11,6,11,7,4,2,-1,5
133,379,71,35,11,399.0,1.0,95,66,9,5,9,6,2,1,-1,4
134,382,69,34,9,402.0,1.0,105,67,7,4,7,5,0,0,-1,3
135,385,69,34,9,405.0,1.0,95,67,7,4,7,5,-2,-1,0,3
136,388,73,36,1,408.0,1.0,105,68,11,6,11,7,9,5,1,4
137,391,71,35,11,411.0,1.0,95,68,9,5,9,6,2,1,-1,3
138,394,69,34,9,414.0,1.0,105,69,7,4,7,5,0,0,-1,2
139,397,74,37,2,417.0,2.0,95,69,12,7,0,1,1,1,1,3
140,399,76,38,4,420.0,1.0,105,70,14,8,2,2,-2,-1,1,4
141,402,71,35,11,423.0,1.0,95,70,9,5,9,6,2,1,-1,3
142,405,69,34,9,426.0,1.0,105,71,7,4,7,5,3,2,-1,2
143,408,69,34,9,429.0,1.0,95,71,7,4,7,5,0,0,0,2
144,411,73,36,1,432.0,1.0,105,72,11,6,11,7,9,5,1,3
145,414,71,35,11,435.0,1.0,95,72,9,5,9,6,2,1,-1,2
146,417,73,36,1,438.0,1.0,105,73,11,6,11,7,4,2,1,3
147,420,74,37,2,441.0,1.0,95,73,12,7,0,1,5,3,1,4
148,423,73,36,1,444.0,1.0,105,74,11,6,11,7,4,2,-1,3
149,426,71,35,11,447.0,1.0,95,74,9,5,9,6,2,1,-1,2
150,429,69,34,9,450.0,1.0,105,75,7,4,7,5,0,0,-1,1
151,432,69,34,9,453.0,1.0,95,75,7,4,7,5,-2,-1,0,1
152,435,73,36,1,456.0,1.0,105,76,11,6,11,7,9,5,1,2
153,438,71,35,11,459.0,1.0,95,76,9,5,9,6,2,1,-1,1
154,441,69,34,9,462.0,1.0,105,77,7,4,7,5,0,0,-1,0
155,444,74,37,2,465.0,2.0,95,77,12,7,0,1,1,1,1,1
156,446,76,38,4,468.0,1.0,105,78,14,8,2,2,-2,-1,1,2
157,449,71,35,11,471.0,1.0,95,78,9,5,9,6,2,1,-1,1
158,452,69,34,9,474.0,1.0,105,79,7,4,7,5,3,2,-1,0
159,455,69,34,9,477.0,1.0,95,79,7,4,7,5,0,0,0,0
