,index,midi_note_num,diatonic_note_num,chromatic_pitch_class,onset,duration,velocity,bar_count,relative_chromatic_pitch,relative_diatonic_pitch,chromatic_scale_degree,diatonic_scale_degree,chromatic_interval,diatonic_interval,parsons_code,parsons_cumsum
0,0,66,32,6,0.0,2.0,105,0,4,2,4,3,0,0,0,0
1,3,64,31,4,4.0,1.0,95,0,2,1,2,2,-2,-1,-1,-1
2,7,66,32,6,8.0,2.0,105,1,4,2,4,3,2,1,1,0
3,10,64,31,4,12.0,1.0,95,1,2,1,2,2,-2,-1,-1,-1
4,14,66,32,6,16.0,2.0,105,2,4,2,4,3,2,1,1,0
5,17,64,31,4,20.0,1.0,95,2,2,1,2,2,-2,-1,-1,-1
6,21,67,33,7,24.0,2.0,105,3,5,3,5,4,1,1,1,0
7,24,64,31,4,28.0,1.0,95,3,2,1,2,2,-3,-2,-1,-1
8,28,66,32,6,32.0,2.0,105,4,4,2,4,3,2,1,1,0
9,31,64,31,4,36.0,1.0,95,4,2,1,2,2,-2,-1,-1,-1
10,35,66,32,6,40.0,2.0,105,5,4,2,4,3,2,1,1,0
11,38,64,31,4,44.0,1.0,95,5,2,1,2,2,-2,-1,-1,-1
12,42,66,32,6,48.0,2.0,105,6,4,2,4,3,2,1,1,0
13,45,64,31,4,52.0,1.0,95,6,2,1,2,2,-2,-1,-1,-1
14,49,67,33,7,56.0,2.0,105,7,5,3,5,4,1,1,1,0
15,52,64,31,4,60.0,1.0,95,7,2,1,2,2,-3,-2,-1,-1
16,56,62,30,2,64.0,1.0,105,8,0,0,0,1,-2,-1,-1,-2
17,60,71,35,11,68.0,1.0,95,8,9,5,9,6,5,3,1,-1
18,64,62,30,2,72.0,1.0,105,9,0,0,0,1,-4,-2,-1,-2
19,68,64,31,4,76.0,1.0,95,9,2,1,2,2,-2,-1,1,-1
20,72,62,30,2,80.0,1.0,105,10,0,0,0,1,-2,-1,-1,-2
21,76,71,35,11,84.0,1.0,95,10,9,5,9,6,5,3,1,-1
22,80,67,33,7,88.0,1.0,105,11,5,3,5,4,1,1,-1,-2
23,84,64,31,4,92.0,1.0,95,11,2,1,2,2,-3,-2,-1,-3
24,88,62,30,2,96.0,1.0,105,12,0,0,0,1,-2,-1,-1,-4
25,92,71,35,11,100.0,1.0,95,12,9,5,9,6,5,3,1,-3
26,96,62,30,2,104.0,1.0,105,13,0,0,0,1,-4,-2,-1,-4
27,100,64,31,4,108.0,1.0,95,13,2,1,2,2,-2,-1,1,-3
28,104,62,30,2,112.0,1.0,105,14,0,0,0,1,-2,-1,-1,-4
29,108,71,35,11,116.0,1.0,95,14,9,5,9,6,5,3,1,-3
30,112,67,33,7,120.0,1.0,105,15,5,3,5,4,1,1,-1,-4
31,116,64,31,4,124.0,1.0,95,15,2,1,2,2,-3,-2,-1,-5
32,120,71,35,11,128.0,2.0,105,16,9,5,9,6,2,1,1,-4
33,123,69,34,9,132.0,1.0,95,16,7,4,7,5,-2,-1,-1,-5
34,127,71,35,11,136.0,2.0,105,17,9,5,9,6,2,1,1,-4
35,130,69,34,9,140.0,1.0,95,17,7,4,7,5,-2,-1,-1,-5
36,134,71,35,11,144.0,2.0,105,18,9,5,9,6,2,1,1,-4
37,137,69,34,9,148.0,1.0,95,18,7,4,7,5,-2,-1,-1,-5
38,141,72,36,0,152.0,1.0,105,19,10,6,10,7,1,1,1,-4
39,145,69,34,9,156.0,1.0,95,19,7,4,7,5,-3,-2,-1,-5
40,149,71,35,11,160.0,2.0,105,20,9,5,9,6,2,1,1,-4
41,152,69,34,9,164.0,1.0,95,20,7,4,7,5,-2,-1,-1,-5
42,156,71,35,11,168.0,2.0,105,21,9,5,9,6,2,1,1,-4
43,159,69,34,9,172.0,1.0,95,21,7,4,7,5,-2,-1,-1,-5
44,163,71,35,11,176.0,2.0,105,22,9,5,9,6,2,1,1,-4
45,166,69,34,9,180.0,1.0,95,22,7,4,7,5,-2,-1,-1,-5
46,170,72,36,0,184.0,1.0,105,23,10,6,10,7,1,1,1,-4
47,174,69,34,9,188.0,1.0,95,23,7,4,7,5,-3,-2,-1,-5
48,178,67,33,7,192.0,1.0,105,24,5,3,5,4,-2,-1,-1,-6
49,182,76,38,4,196.0,1.0,95,24,14,8,2,2,5,3,1,-5
50,186,67,33,7,200.0,1.0,105,25,5,3,5,4,-4,-2,-1,-6
51,190,69,34,9,204.0,1.0,95,25,7,4,7,5,-2,-1,1,-5
52,194,67,33,7,208.0,1.0,105,26,5,3,5,4,-2,-1,-1,-6
53,198,76,38,4,212.0,1.0,95,26,14,8,2,2,5,3,1,-5
54,202,72,36,0,216.0,1.0,105,27,10,6,10,7,1,1,-1,-6
55,206,69,34,9,220.0,1.0,95,27,7,4,7,5,-3,-2,-1,-7
56,210,67,33,7,224.0,1.0,105,28,5,3,5,4,-2,-1,-1,-8
57,214,76,38,4,228.0,1.0,95,28,14,8,2,2,5,3,1,-7
58,218,67,33,7,232.0,1.0,105,29,5,3,5,4,-4,-2,-1,-8
59,222,69,34,9,236.0,1.0,95,29,7,4,7,5,-2,-1,1,-7
60,226,67,33,7,240.0,1.0,105,30,5,3,5,4,-2,-1,-1,-8
61,230,76,38,4,244.0,1.0,95,30,14,8,2,2,5,3,1,-7
62,234,72,36,0,248.0,1.0,105,31,10,6,10,7,1,1,-1,-8
63,238,69,34,9,252.0,1.0,95,31,7,4,7,5,-3,-2,-1,-9
64,242,73,36,1,256.0,2.0,105,32,11,6,11,7,-1,-1,1,-8
65,245,71,35,11,260.0,1.0,95,32,9,5,9,6,-2,-1,-1,-9
66,249,73,36,1,264.0,2.0,105,33,11,6,11,7,2,1,1,-8
67,252,71,35,11,268.0,1.0,95,33,9,5,9,6,-2,-1,-1,-9
68,256,73,36,1,272.0,2.0,105,34,11,6,11,7,2,1,1,-8
69,259,71,35,11,276.0,1.0,95,34,9,5,9,6,-2,-1,-1,-9
70,263,74,37,2,280.0,1.0,105,35,12,7,0,1,3,2,1,-8
71,267,71,35,11,284.0,1.0,95,35,9,5,9,6,-3,-2,-1,-9
72,271,73,36,1,288.0,2.0,105,36,11,6,11,7,2,1,1,-8
73,274,71,35,11,292.0,1.0,95,36,9,5,9,6,-2,-1,-1,-9
74,278,73,36,1,296.0,2.0,105,37,11,6,11,7,2,1,1,-8
75,281,71,35,11,300.0,1.0,95,37,9,5,9,6,-2,-1,-1,-9
76,285,73,36,1,304.0,2.0,105,38,11,6,11,7,2,1,1,-8
77,288,71,35,11,308.0,1.0,95,38,9,5,9,6,-2,-1,-1,-9
78,292,74,37,2,312.0,1.0,105,39,12,7,0,1,3,2,1,-8
79,296,71,35,11,316.0,1.0,95,39,9,5,9,6,-3,-2,-1,-9
80,300,69,34,9,320.0,1.0,105,40,7,4,7,5,-2,-1,-1,-10
81,304,78,39,6,324.0,1.0,95,40,16,9,4,3,5,3,1,-9
82,308,69,34,9,328.0,1.0,105,41,7,4,7,5,-4,-2,-1,-10
83,312,71,35,11,332.0,1.0,95,41,9,5,9,6,-2,-1,1,-9
84,316,69,34,9,336.0,1.0,105,42,7,4,7,5,-2,-1,-1,-10
85,320,78,39,6,340.0,1.0,95,42,16,9,4,3,5,3,1,-9
86,324,74,37,2,344.0,1.0,105,43,12,7,0,1,1,1,-1,-10
87,328,71,35,11,348.0,1.0,95,43,9,5,9,6,-3,-2,-1,-11
88,332,69,34,9,352.0,1.0,105,44,7,4,7,5,-2,-1,-1,-12
89,336,78,39,6,356.0,1.0,95,44,16,9,4,3,5,3,1,-11
90,340,69,34,9,360.0,1.0,105,45,7,4,7,5,-4,-2,-1,-12
91,344,71,35,11,364.0,1.0,95,45,9,5,9,6,-2,-1,1,-11
92,348,69,34,9,368.0,1.0,105,46,7,4,7,5,-2,-1,-1,-12
93,352,78,39,6,372.0,1.0,95,46,16,9,4,3,5,3,1,-11
94,356,74,37,2,376.0,1.0,105,47,12,7,0,1,1,1,-1,-12
95,360,71,35,11,380.0,1.0,95,47,9,5,9,6,-3,-2,-1,-13
