,index,midi_note_num,diatonic_note_num,chromatic_pitch_class,onset,duration,velocity,bar_count,relative_chromatic_pitch,relative_diatonic_pitch,chromatic_scale_degree,diatonic_scale_degree,chromatic_interval,diatonic_interval,parsons_code,parsons_cumsum
0,2,72,36,0,2.0,2.0,105,0,5,3,5,4,0,0,0,0
1,4,76,38,4,5.0,1.0,95,0,9,5,9,6,4,2,1,1
2,7,76,38,4,8.0,1.0,105,1,9,5,9,6,4,2,0,1
3,10,71,35,11,11.0,1.0,95,1,4,2,4,3,-1,-1,-1,0
4,13,69,34,9,14.0,3.0,105,2,2,1,2,2,2,1,-1,-1
5,14,79,40,7,17.0,3.0,95,2,12,7,0,1,10,6,1,0
6,15,76,38,4,20.0,1.0,105,3,9,5,9,6,-3,-2,-1,-1
7,18,79,40,7,23.0,1.0,95,3,12,7,0,1,1,1,1,0
8,21,72,36,0,26.0,2.0,105,4,5,3,5,4,-2,-1,-1,-1
9,23,76,38,4,29.0,1.0,95,4,9,5,9,6,4,2,1,0
10,26,76,38,4,32.0,1.0,105,5,9,5,9,6,4,2,0,0
11,29,74,37,2,35.0,1.0,95,5,7,4,7,5,2,1,-1,-1
12,32,81,41,9,38.0,1.0,105,6,14,8,2,2,2,1,1,0
13,35,74,37,2,41.0,1.0,95,6,7,4,7,5,-2,-1,-1,-1
14,38,69,34,9,44.0,1.0,105,7,2,1,2,2,-7,-4,-1,-2
15,41,69,34,9,47.0,2.0,95,7,2,1,2,2,0,0,0,-2
16,43,71,35,11,50.0,1.0,95,7,4,2,4,3,2,1,1,-1
17,44,72,36,0,51.0,2.0,105,8,5,3,5,4,1,1,1,0
18,46,76,38,4,54.0,1.0,95,8,9,5,9,6,4,2,1,1
19,49,76,38,4,57.0,1.0,105,9,9,5,9,6,4,2,0,1
20,52,71,35,11,60.0,1.0,95,9,4,2,4,3,-1,-1,-1,0
21,55,69,34,9,63.0,3.0,105,10,2,1,2,2,2,1,-1,-1
22,56,79,40,7,66.0,3.0,95,10,12,7,0,1,10,6,1,0
23,57,76,38,4,69.0,1.0,105,11,9,5,9,6,-3,-2,-1,-1
24,60,79,40,7,72.0,1.0,95,11,12,7,0,1,1,1,1,0
25,63,72,36,0,75.0,2.0,105,12,5,3,5,4,-2,-1,-1,-1
26,65,76,38,4,78.0,1.0,95,12,9,5,9,6,4,2,1,0
27,68,76,38,4,81.0,1.0,105,13,9,5,9,6,4,2,0,0
28,71,74,37,2,84.0,1.0,95,13,7,4,7,5,2,1,-1,-1
29,74,81,41,9,87.0,1.0,105,14,14,8,2,2,2,1,1,0
30,77,74,37,2,90.0,1.0,95,14,7,4,7,5,-2,-1,-1,-1
31,80,69,34,9,93.0,1.0,105,15,2,1,2,2,-7,-4,-1,-2
32,83,69,34,9,96.0,2.0,95,15,2,1,2,2,0,0,0,-2
33,85,79,40,7,99.0,3.0,105,16,12,7,0,1,1,1,1,-1
34,86,79,40,7,102.0,1.0,95,16,12,7,0,1,0,0,0,-1
35,89,81,41,9,105.0,1.0,105,17,14,8,2,2,0,0,1,0
36,92,74,37,2,108.0,1.0,95,17,7,4,7,5,-2,-1,-1,-1
37,95,69,34,9,111.0,3.0,105,18,2,1,2,2,-7,-4,-1,-2
38,96,79,40,7,114.0,3.0,95,18,12,7,0,1,10,6,1,-1
39,97,76,38,4,117.0,1.0,105,19,9,5,9,6,-3,-2,-1,-2
40,100,79,40,7,120.0,1.0,95,19,12,7,0,1,1,1,1,-1
41,103,79,40,7,123.0,3.0,105,20,12,7,0,1,1,1,0,-1
42,104,79,40,7,126.0,1.0,95,20,12,7,0,1,0,0,0,-1
43,107,81,41,9,129.0,1.0,105,21,14,8,2,2,0,0,1,0
44,110,74,37,2,132.0,1.0,95,21,7,4,7,5,-2,-1,-1,-1
45,114,81,41,9,135.0,1.0,105,22,14,8,2,2,2,1,1,0
46,117,74,37,2,138.0,1.0,95,22,7,4,7,5,-2,-1,-1,-1
47,120,69,34,9,141.0,1.0,105,23,2,1,2,2,-7,-4,-1,-2
48,123,69,34,9,144.0,2.0,95,23,2,1,2,2,0,0,0,-2
49,125,79,40,7,147.0,3.0,105,24,12,7,0,1,1,1,1,-1
50,126,79,40,7,150.0,1.0,95,24,12,7,0,1,0,0,0,-1
51,129,81,41,9,153.0,1.0,105,25,14,8,2,2,0,0,1,0
52,132,74,37,2,156.0,1.0,95,25,7,4,7,5,-2,-1,-1,-1
53,135,69,34,9,159.0,3.0,105,26,2,1,2,2,-7,-4,-1,-2
54,136,79,40,7,162.0,3.0,95,26,12,7,0,1,10,6,1,-1
55,137,76,38,4,165.0,1.0,105,27,9,5,9,6,-3,-2,-1,-2
56,140,79,40,7,168.0,1.0,95,27,12,7,0,1,1,1,1,-1
57,143,79,40,7,171.0,3.0,105,28,12,7,0,1,1,1,0,-1
58,144,79,40,7,174.0,1.0,95,28,12,7,0,1,0,0,0,-1
59,147,81,41,9,177.0,1.0,105,29,14,8,2,2,0,0,1,0
60,150,74,37,2,180.0,1.0,95,29,7,4,7,5,-2,-1,-1,-1
61,154,81,41,9,183.0,1.0,105,30,14,8,2,2,2,1,1,0
62,157,74,37,2,186.0,1.0,95,30,7,4,7,5,-2,-1,-1,-1
63,160,69,34,9,189.0,1.0,105,31,2,1,2,2,-7,-4,-1,-2
64,163,69,34,9,192.0,2.0,95,31,2,1,2,2,0,0,0,-2
65,165,72,36,0,195.0,2.0,105,32,5,3,5,4,1,1,1,-1
66,167,74,37,2,198.0,1.0,95,32,7,4,7,5,2,1,1,0
67,171,76,38,4,201.0,1.0,105,33,9,5,9,6,2,1,1,1
68,174,69,34,9,204.0,1.0,95,33,2,1,2,2,0,0,-1,0
69,177,72,36,0,207.0,2.0,105,34,5,3,5,4,8,5,1,1
70,179,74,37,2,210.0,1.0,95,34,7,4,7,5,2,1,1,2
71,183,76,38,4,213.0,1.0,105,35,9,5,9,6,2,1,1,3
72,186,69,34,9,216.0,2.0,95,35,2,1,2,2,0,0,-1,2
73,188,72,36,0,219.0,1.0,105,36,5,3,5,4,1,1,1,3
74,191,74,37,2,222.0,1.0,95,36,7,4,7,5,2,1,1,4
75,195,76,38,4,225.0,1.0,105,37,9,5,9,6,2,1,1,5
76,198,79,40,7,228.0,1.0,95,37,12,7,0,1,3,2,1,6
77,201,81,41,9,231.0,1.0,105,38,14,8,2,2,-2,-1,1,7
78,204,74,37,2,234.0,1.0,95,38,7,4,7,5,-2,-1,-1,6
79,207,69,34,9,237.0,1.0,105,39,2,1,2,2,-7,-4,-1,5
80,210,69,34,9,240.0,2.0,95,39,2,1,2,2,0,0,0,5
81,212,72,36,0,243.0,2.0,105,40,5,3,5,4,1,1,1,6
82,214,74,37,2,246.0,1.0,95,40,7,4,7,5,2,1,1,7
83,218,76,38,4,249.0,1.0,105,41,9,5,9,6,2,1,1,8
84,221,69,34,9,252.0,1.0,95,41,2,1,2,2,0,0,-1,7
85,224,72,36,0,255.0,2.0,105,42,5,3,5,4,8,5,1,8
86,226,74,37,2,258.0,1.0,95,42,7,4,7,5,2,1,1,9
87,230,76,38,4,261.0,1.0,105,43,9,5,9,6,2,1,1,10
88,233,69,34,9,264.0,2.0,95,43,2,1,2,2,0,0,-1,9
89,235,72,36,0,267.0,1.0,105,44,5,3,5,4,1,1,1,10
90,238,74,37,2,270.0,1.0,95,44,7,4,7,5,2,1,1,11
91,242,76,38,4,273.0,1.0,105,45,9,5,9,6,2,1,1,12
92,245,79,40,7,276.0,1.0,95,45,12,7,0,1,3,2,1,13
93,248,81,41,9,279.0,1.0,105,46,14,8,2,2,-2,-1,1,14
94,251,74,37,2,282.0,1.0,95,46,7,4,7,5,-2,-1,-1,13
95,254,69,34,9,285.0,1.0,105,47,2,1,2,2,-7,-4,-1,12
96,257,69,34,9,288.0,2.0,95,47,2,1,2,2,0,0,0,12
