,index,midi_note_num,diatonic_note_num,chromatic_pitch_class,onset,duration,velocity,bar_count,relative_chromatic_pitch,relative_diatonic_pitch,chromatic_scale_degree,diatonic_scale_degree,chromatic_interval,diatonic_interval,parsons_code,parsons_cumsum
0,0,71,35,11,0.0,3.0,105,0,4,2,4,3,0,0,0,0
1,3,69,34,9,6.0,3.0,105,1,2,1,2,2,-5,-3,-1,-1
2,6,67,33,7,12.0,3.0,105,2,0,0,0,1,-4,-2,-1,-2
3,10,62,30,2,18.0,4.0,105,3,-5,-3,7,5,0,0,-1,-3
4,14,62,30,2,24.0,2.0,105,4,-5,-3,7,5,0,0,0,-3
5,17,67,33,7,30.0,2.0,105,5,0,0,0,1,1,1,1,-2
6,20,67,33,7,36.0,2.0,105,6,0,0,0,1,1,1,0,-2
7,23,72,36,0,42.0,2.0,105,7,5,3,5,4,1,1,1,-1
8,26,71,35,11,48.0,3.0,105,8,4,2,4,3,-3,-2,-1,-2
9,29,69,34,9,54.0,3.0,105,9,2,1,2,2,-5,-3,-1,-3
10,32,67,33,7,60.0,3.0,105,10,0,0,0,1,-4,-2,-1,-4
11,36,62,30,2,66.0,4.0,105,11,-5,-3,7,5,0,0,-1,-5
12,40,62,30,2,72.0,2.0,105,12,-5,-3,7,5,0,0,0,-5
13,43,67,33,7,78.0,2.0,105,13,0,0,0,1,1,1,1,-4
14,46,72,36,0,84.0,2.0,105,14,5,3,5,4,1,1,1,-3
15,49,67,33,7,90.0,6.0,105,15,0,0,0,1,-7,-4,-1,-4
16,50,71,35,11,96.0,3.0,105,16,4,2,4,3,4,2,1,-3
17,53,69,34,9,102.0,3.0,105,17,2,1,2,2,-5,-3,-1,-4
18,56,67,33,7,108.0,3.0,105,18,0,0,0,1,-4,-2,-1,-5
19,60,62,30,2,114.0,4.0,105,19,-5,-3,7,5,0,0,-1,-6
20,64,62,30,2,120.0,2.0,105,20,-5,-3,7,5,0,0,0,-6
21,67,67,33,7,126.0,2.0,105,21,0,0,0,1,1,1,1,-5
22,70,67,33,7,132.0,2.0,105,22,0,0,0,1,1,1,0,-5
23,73,72,36,0,138.0,2.0,105,23,5,3,5,4,1,1,1,-4
24,76,71,35,11,144.0,3.0,105,24,4,2,4,3,-3,-2,-1,-5
25,79,69,34,9,150.0,3.0,105,25,2,1,2,2,-5,-3,-1,-6
26,82,67,33,7,156.0,3.0,105,26,0,0,0,1,-4,-2,-1,-7
27,86,62,30,2,162.0,4.0,105,27,-5,-3,7,5,0,0,-1,-8
28,90,62,30,2,168.0,2.0,105,28,-5,-3,7,5,0,0,0,-8
29,93,67,33,7,174.0,2.0,105,29,0,0,0,1,1,1,1,-7
30,96,72,36,0,180.0,2.0,105,30,5,3,5,4,1,1,1,-6
31,99,67,33,7,186.0,6.0,105,31,0,0,0,1,-7,-4,-1,-7
32,100,79,40,7,192.0,4.0,105,32,12,7,0,1,12,7,1,-6
33,103,74,37,2,198.0,2.0,105,33,7,4,7,5,-2,-1,-1,-7
34,106,76,38,4,204.0,3.0,105,34,9,5,9,6,5,3,1,-6
35,110,72,36,0,210.0,0.5,105,35,5,3,5,4,0,0,-1,-7
36,120,66,32,6,216.0,2.0,105,36,-1,-1,11,7,-1,-1,-1,-8
37,123,76,38,4,222.0,2.0,105,37,9,5,9,6,4,2,1,-7
38,126,71,35,11,228.0,2.0,105,38,4,2,4,3,-1,-1,-1,-8
39,129,74,37,2,234.0,2.0,105,39,7,4,7,5,-5,-3,1,-7
40,132,79,40,7,240.0,3.0,105,40,12,7,0,1,-4,-2,1,-6
41,136,74,37,2,246.0,2.0,105,41,7,4,7,5,-2,-1,-1,-7
42,139,76,38,4,252.0,3.0,105,42,9,5,9,6,5,3,1,-6
43,143,72,36,0,258.0,0.5,105,43,5,3,5,4,0,0,-1,-7
44,153,66,32,6,264.0,2.0,105,44,-1,-1,11,7,-1,-1,-1,-8
45,156,76,38,4,270.0,3.0,105,45,9,5,9,6,4,2,1,-7
46,159,67,33,7,276.0,6.0,105,46,0,0,0,1,1,1,-1,-8
47,160,67,33,7,282.0,6.0,105,47,0,0,0,1,0,0,0,-8
48,161,79,40,7,288.0,4.0,105,48,12,7,0,1,12,7,1,-7
49,164,74,37,2,294.0,2.0,105,49,7,4,7,5,-2,-1,-1,-8
50,167,76,38,4,300.0,3.0,105,50,9,5,9,6,5,3,1,-7
51,171,72,36,0,306.0,0.5,105,51,5,3,5,4,0,0,-1,-8
52,181,66,32,6,312.0,2.0,105,52,-1,-1,11,7,-1,-1,-1,-9
53,184,76,38,4,318.0,2.0,105,53,9,5,9,6,4,2,1,-8
54,187,71,35,11,324.0,2.0,105,54,4,2,4,3,-1,-1,-1,-9
55,190,74,37,2,330.0,2.0,105,55,7,4,7,5,-5,-3,1,-8
56,193,79,40,7,336.0,3.0,105,56,12,7,0,1,-4,-2,1,-7
57,197,74,37,2,342.0,2.0,105,57,7,4,7,5,-2,-1,-1,-8
58,200,76,38,4,348.0,3.0,105,58,9,5,9,6,5,3,1,-7
59,204,72,36,0,354.0,0.5,105,59,5,3,5,4,0,0,-1,-8
60,214,66,32,6,360.0,2.0,105,60,-1,-1,11,7,-1,-1,-1,-9
61,217,76,38,4,366.0,3.0,105,61,9,5,9,6,4,2,1,-8
62,220,67,33,7,372.0,6.0,105,62,0,0,0,1,1,1,-1,-9
63,221,67,33,7,378.0,6.0,105,63,0,0,0,1,0,0,0,-9
64,222,83,42,11,384.0,4.0,105,64,16,9,4,3,16,9,1,-8
65,224,78,39,6,390.0,3.0,105,65,11,6,11,7,-1,-1,-1,-9
66,227,76,38,4,396.0,3.0,105,66,9,5,9,6,-5,-3,-1,-10
67,230,74,37,2,402.0,6.0,105,67,7,4,7,5,-5,-3,-1,-11
68,231,71,35,11,408.0,1.0,105,68,4,2,4,3,-3,-2,-1,-12
69,237,79,40,7,414.0,1.0,105,69,12,7,0,1,5,3,1,-11
70,240,71,35,11,420.0,3.0,105,70,4,2,4,3,2,1,-1,-12
71,244,67,33,7,426.0,6.0,105,71,0,0,0,1,-4,-2,-1,-13
72,245,83,42,11,432.0,4.0,105,72,16,9,4,3,16,9,1,-12
73,247,78,39,6,438.0,3.0,105,73,11,6,11,7,-1,-1,-1,-13
74,250,76,38,4,444.0,3.0,105,74,9,5,9,6,-5,-3,-1,-14
75,253,74,37,2,450.0,6.0,105,75,7,4,7,5,-5,-3,-1,-15
76,254,71,35,11,456.0,1.0,105,76,4,2,4,3,-3,-2,-1,-16
77,260,79,40,7,462.0,1.0,105,77,12,7,0,1,5,3,1,-15
78,263,71,35,11,468.0,3.0,105,78,4,2,4,3,2,1,-1,-16
79,267,67,33,7,474.0,6.0,105,79,0,0,0,1,-4,-2,-1,-17
