,index,midi_note_num,diatonic_note_num,chromatic_pitch_class,onset,duration,velocity,bar_count,relative_chromatic_pitch,relative_diatonic_pitch,chromatic_scale_degree,diatonic_scale_degree,chromatic_interval,diatonic_interval,parsons_code,parsons_cumsum
0,1,74,37,2,1.0,2.0,105,0,12,7,0,1,0,0,0,0
1,3,74,37,2,4.0,1.5,95,0,12,7,0,1,0,0,0,0
2,6,69,34,9,7.0,2.0,105,1,7,4,7,5,-2,-1,-1,-1
3,8,66,32,6,10.0,1.5,95,1,4,2,4,3,-1,-1,-1,-2
4,11,64,31,4,13.0,2.0,105,2,2,1,2,2,-2,-1,-1,-3
5,13,76,38,4,16.0,1.0,95,2,14,8,2,2,0,0,1,-2
6,16,73,36,1,19.0,2.0,105,3,11,6,11,7,-1,-1,-1,-3
7,18,69,34,9,22.0,1.5,95,3,7,4,7,5,-2,-1,-1,-4
8,21,69,34,9,25.0,2.0,105,4,7,4,7,5,2,1,0,-4
9,23,78,39,6,28.0,1.5,95,4,16,9,4,3,0,0,1,-3
10,26,76,38,4,31.0,2.0,105,5,14,8,2,2,-2,-1,-1,-4
11,28,73,36,1,34.0,1.5,95,5,11,6,11,7,-1,-1,-1,-5
12,31,78,39,6,37.0,2.0,105,6,16,9,4,3,9,5,1,-4
13,33,81,41,9,40.0,1.5,95,6,19,11,7,5,2,1,1,-3
14,36,73,36,1,43.0,1.5,105,7,11,6,11,7,-1,-1,-1,-4
15,39,73,36,1,46.0,2.0,95,7,11,6,11,7,-1,-1,0,-4
16,41,69,34,9,49.0,1.5,105,8,7,4,7,5,-2,-1,-1,-5
17,44,69,34,9,52.0,1.5,95,8,7,4,7,5,0,0,0,-5
18,47,71,35,11,55.0,1.5,105,9,9,5,9,6,2,1,1,-4
19,50,76,38,4,58.0,1.5,95,9,14,8,2,2,2,1,1,-3
20,53,81,41,9,61.0,1.5,105,10,19,11,7,5,12,7,1,-2
21,56,79,40,7,64.0,1.5,95,10,17,10,5,4,-2,-1,-1,-3
22,59,74,37,2,67.0,3.0,105,11,12,7,0,1,1,1,-1,-4
23,60,74,37,2,70.0,2.0,95,11,12,7,0,1,0,0,0,-4
24,62,74,37,2,73.0,2.0,105,12,12,7,0,1,5,3,0,-4
25,64,74,37,2,76.0,1.5,95,12,12,7,0,1,0,0,0,-4
26,67,69,34,9,79.0,2.0,105,13,7,4,7,5,-2,-1,-1,-5
27,69,66,32,6,82.0,1.5,95,13,4,2,4,3,-1,-1,-1,-6
28,72,64,31,4,85.0,2.0,105,14,2,1,2,2,-2,-1,-1,-7
29,74,76,38,4,88.0,1.0,95,14,14,8,2,2,0,0,1,-6
30,77,73,36,1,91.0,2.0,105,15,11,6,11,7,-1,-1,-1,-7
31,79,69,34,9,94.0,1.5,95,15,7,4,7,5,-2,-1,-1,-8
32,82,69,34,9,97.0,2.0,105,16,7,4,7,5,2,1,0,-8
33,84,78,39,6,100.0,1.5,95,16,16,9,4,3,0,0,1,-7
34,87,76,38,4,103.0,2.0,105,17,14,8,2,2,-2,-1,-1,-8
35,89,73,36,1,106.0,1.5,95,17,11,6,11,7,-1,-1,-1,-9
36,92,78,39,6,109.0,2.0,105,18,16,9,4,3,9,5,1,-8
37,94,81,41,9,112.0,1.5,95,18,19,11,7,5,2,1,1,-7
38,97,73,36,1,115.0,1.5,105,19,11,6,11,7,-1,-1,-1,-8
39,100,73,36,1,118.0,2.0,95,19,11,6,11,7,-1,-1,0,-8
40,102,69,34,9,121.0,1.5,105,20,7,4,7,5,-2,-1,-1,-9
41,105,69,34,9,124.0,1.5,95,20,7,4,7,5,0,0,0,-9
42,108,71,35,11,127.0,1.5,105,21,9,5,9,6,2,1,1,-8
43,111,76,38,4,130.0,1.5,95,21,14,8,2,2,2,1,1,-7
44,114,81,41,9,133.0,1.5,105,22,19,11,7,5,12,7,1,-6
45,117,79,40,7,136.0,1.5,95,22,17,10,5,4,-2,-1,-1,-7
46,120,74,37,2,139.0,3.0,105,23,12,7,0,1,1,1,-1,-8
47,121,74,37,2,142.0,2.0,95,23,12,7,0,1,0,0,0,-8
48,123,69,34,9,145.0,1.5,105,24,7,4,7,5,-2,-1,-1,-9
49,126,67,33,7,148.0,1.5,95,24,5,3,5,4,-2,-1,-1,-10
50,129,66,32,6,151.0,1.5,105,25,4,2,4,3,-1,-1,-1,-11
51,132,64,31,4,154.0,2.0,95,25,2,1,2,2,-2,-1,-1,-12
52,134,64,31,4,157.0,1.5,105,26,2,1,2,2,0,0,0,-12
53,137,64,31,4,160.0,1.5,95,26,2,1,2,2,0,0,0,-12
54,140,66,32,6,163.0,2.0,105,27,4,2,4,3,-1,-1,1,-11
55,142,69,34,9,166.0,1.5,95,27,7,4,7,5,2,1,1,-10
56,145,62,30,2,169.0,3.0,105,28,0,0,0,1,-2,-1,-1,-11
57,146,74,37,2,172.0,3.0,95,28,12,7,0,1,12,7,1,-10
58,147,76,38,4,175.0,1.5,105,29,14,8,2,2,2,1,1,-9
59,150,76,38,4,178.0,1.5,95,29,14,8,2,2,0,0,0,-9
60,153,69,34,9,181.0,1.0,105,30,7,4,7,5,0,0,-1,-10
61,156,74,37,2,184.0,1.0,95,30,12,7,0,1,1,1,1,-9
62,159,79,40,7,187.0,2.0,105,31,17,10,5,4,-2,-1,1,-8
63,161,76,38,4,190.0,1.5,95,31,14,8,2,2,-2,-1,-1,-9
64,164,74,37,2,193.0,2.0,105,32,12,7,0,1,5,3,-1,-10
65,166,74,37,2,196.0,1.5,95,32,12,7,0,1,0,0,0,-10
66,169,71,35,11,199.0,1.5,105,33,9,5,9,6,-3,-2,-1,-11
67,172,71,35,11,202.0,1.5,95,33,9,5,9,6,4,2,0,-11
68,175,73,36,1,205.0,2.0,105,34,11,6,11,7,-1,-1,1,-10
69,177,76,38,4,208.0,1.5,95,34,14,8,2,2,2,1,1,-9
70,180,76,38,4,211.0,1.5,105,35,14,8,2,2,-2,-1,0,-9
71,183,73,36,1,214.0,1.5,95,35,11,6,11,7,-1,-1,-1,-10
72,186,74,37,2,217.0,1.5,105,36,12,7,0,1,5,3,1,-9
73,189,67,33,7,220.0,1.5,95,36,5,3,5,4,1,1,-1,-10
74,192,69,34,9,223.0,2.0,105,37,7,4,7,5,-2,-1,1,-9
75,194,66,32,6,226.0,1.0,95,37,4,2,4,3,-1,-1,-1,-10
76,197,71,35,11,229.0,1.5,105,38,9,5,9,6,2,1,1,-9
77,200,66,32,6,232.0,1.5,95,38,4,2,4,3,-1,-1,-1,-10
78,203,62,30,2,235.0,3.0,105,39,0,0,0,1,-2,-1,-1,-11
79,204,62,30,2,238.0,2.0,95,39,0,0,0,1,0,0,0,-11
80,206,69,34,9,241.0,1.5,105,40,7,4,7,5,-2,-1,1,-10
81,209,67,33,7,244.0,1.5,95,40,5,3,5,4,-2,-1,-1,-11
82,212,66,32,6,247.0,1.5,105,41,4,2,4,3,-1,-1,-1,-12
83,215,64,31,4,250.0,2.0,95,41,2,1,2,2,-2,-1,-1,-13
84,217,64,31,4,253.0,1.5,105,42,2,1,2,2,0,0,0,-13
85,220,64,31,4,256.0,1.5,95,42,2,1,2,2,0,0,0,-13
86,223,66,32,6,259.0,2.0,105,43,4,2,4,3,-1,-1,1,-12
87,225,69,34,9,262.0,1.5,95,43,7,4,7,5,2,1,1,-11
88,228,62,30,2,265.0,3.0,105,44,0,0,0,1,-2,-1,-1,-12
89,229,74,37,2,268.0,3.0,95,44,12,7,0,1,12,7,1,-11
90,230,76,38,4,271.0,1.5,105,45,14,8,2,2,2,1,1,-10
91,233,76,38,4,274.0,1.5,95,45,14,8,2,2,0,0,0,-10
92,236,69,34,9,277.0,1.0,105,46,7,4,7,5,0,0,-1,-11
93,239,74,37,2,280.0,1.0,95,46,12,7,0,1,1,1,1,-10
94,242,79,40,7,283.0,2.0,105,47,17,10,5,4,-2,-1,1,-9
95,244,76,38,4,286.0,1.5,95,47,14,8,2,2,-2,-1,-1,-10
96,247,74,37,2,289.0,2.0,105,48,12,7,0,1,5,3,-1,-11
97,249,74,37,2,292.0,1.5,95,48,12,7,0,1,0,0,0,-11
98,252,71,35,11,295.0,1.5,105,49,9,5,9,6,-3,-2,-1,-12
99,255,71,35,11,298.0,1.5,95,49,9,5,9,6,4,2,0,-12
100,258,73,36,1,301.0,2.0,105,50,11,6,11,7,-1,-1,1,-11
101,260,76,38,4,304.0,1.5,95,50,14,8,2,2,2,1,1,-10
102,263,76,38,4,307.0,1.5,105,51,14,8,2,2,-2,-1,0,-10
103,266,73,36,1,310.0,1.5,95,51,11,6,11,7,-1,-1,-1,-11
104,269,74,37,2,313.0,1.5,105,52,12,7,0,1,5,3,1,-10
105,272,67,33,7,316.0,1.5,95,52,5,3,5,4,1,1,-1,-11
106,275,69,34,9,319.0,2.0,105,53,7,4,7,5,-2,-1,1,-10
107,277,66,32,6,322.0,1.0,95,53,4,2,4,3,-1,-1,-1,-11
108,280,71,35,11,325.0,1.5,105,54,9,5,9,6,2,1,1,-10
109,283,66,32,6,328.0,1.5,95,54,4,2,4,3,-1,-1,-1,-11
110,286,62,30,2,331.0,3.0,105,55,0,0,0,1,-2,-1,-1,-12
111,287,62,30,2,334.0,2.0,95,55,0,0,0,1,0,0,0,-12
