,index,midi_note_num,diatonic_note_num,chromatic_pitch_class,onset,duration,velocity,bar_count,relative_chromatic_pitch,relative_diatonic_pitch,chromatic_scale_degree,diatonic_scale_degree,chromatic_interval,diatonic_interval,parsons_code,parsons_cumsum
0,1,66,32,6,1.0,0.5,105,0,4,2,4,3,0,0,0,0
1,5,74,37,2,4.0,2.0,95,0,12,7,0,1,8,5,1,1
2,7,74,37,2,7.0,2.0,95,0,12,7,0,1,5,3,0,1
3,9,71,35,11,10.0,0.5,105,1,9,5,9,6,2,1,-1,0
4,13,69,34,9,13.0,1.0,95,1,7,4,7,5,-2,-1,-1,-1
5,16,64,31,4,16.0,2.0,95,1,2,1,2,2,2,1,-1,-2
6,18,66,32,6,19.0,0.5,105,2,4,2,4,3,-1,-1,1,-1
7,22,74,37,2,22.0,2.0,95,2,12,7,0,1,8,5,1,0
8,24,74,37,2,25.0,2.0,95,2,12,7,0,1,5,3,0,0
9,26,78,39,6,28.0,0.5,105,3,16,9,4,3,-1,-1,1,1
10,30,76,38,4,31.0,1.0,95,3,14,8,2,2,-2,-1,-1,0
11,33,74,37,2,34.0,2.0,95,3,12,7,0,1,1,1,-1,-1
12,35,66,32,6,37.0,0.5,105,4,4,2,4,3,-1,-1,-1,-2
13,39,74,37,2,40.0,2.0,95,4,12,7,0,1,8,5,1,-1
14,41,74,37,2,43.0,2.0,95,4,12,7,0,1,5,3,0,-1
15,43,71,35,11,46.0,0.5,105,5,9,5,9,6,2,1,-1,-2
16,47,69,34,9,49.0,1.0,95,5,7,4,7,5,-2,-1,-1,-3
17,50,64,31,4,52.0,2.0,95,5,2,1,2,2,2,1,-1,-4
18,52,66,32,6,55.0,0.5,105,6,4,2,4,3,-1,-1,1,-3
19,56,74,37,2,58.0,2.0,95,6,12,7,0,1,8,5,1,-2
20,58,74,37,2,61.0,2.0,95,6,12,7,0,1,5,3,0,-2
21,60,78,39,6,64.0,0.5,105,7,16,9,4,3,-1,-1,1,-1
22,64,76,38,4,67.0,1.0,95,7,14,8,2,2,-2,-1,-1,-2
23,67,74,37,2,70.0,2.0,95,7,12,7,0,1,1,1,-1,-3
24,69,78,39,6,73.0,2.0,105,8,16,9,4,3,-1,-1,1,-2
25,71,78,39,6,76.0,0.5,95,8,16,9,4,3,4,2,0,-2
26,75,78,39,6,79.0,1.0,95,8,16,9,4,3,-1,-1,0,-2
27,78,73,36,1,82.0,2.0,105,9,11,6,11,7,-1,-1,-1,-3
28,80,73,36,1,85.0,0.5,95,9,11,6,11,7,4,2,0,-3
29,84,76,38,4,88.0,2.0,95,9,14,8,2,2,0,0,1,-2
30,86,78,39,6,91.0,1.0,105,10,16,9,4,3,-1,-1,1,-1
31,90,81,41,9,94.0,1.0,95,10,19,11,7,5,2,1,1,0
32,93,76,38,4,97.0,1.0,95,10,14,8,2,2,-2,-1,-1,-1
33,95,74,37,2,99.0,0.5,105,11,12,7,0,1,0,0,-1,-2
34,104,71,35,11,102.0,0.5,95,11,9,5,9,6,2,1,-1,-3
35,108,74,37,2,105.0,2.0,95,11,12,7,0,1,0,0,1,-2
36,110,78,39,6,108.0,2.0,105,12,16,9,4,3,-1,-1,1,-1
37,112,78,39,6,111.0,0.5,95,12,16,9,4,3,4,2,0,-1
38,116,78,39,6,114.0,1.0,95,12,16,9,4,3,-1,-1,0,-1
39,119,74,37,2,117.0,0.5,105,13,12,7,0,1,0,0,-1,-2
40,128,73,36,1,120.0,0.5,95,13,11,6,11,7,4,2,-1,-3
41,132,76,38,4,123.0,2.0,95,13,14,8,2,2,0,0,1,-2
42,134,78,39,6,126.0,1.0,105,14,16,9,4,3,-1,-1,1,-1
43,137,81,41,9,129.0,1.0,95,14,19,11,7,5,3,2,1,0
44,140,83,42,11,132.0,1.0,95,14,21,12,9,6,2,1,1,1
45,143,78,39,6,135.0,1.0,105,15,16,9,4,3,-1,-1,-1,0
46,146,69,34,9,138.0,1.0,95,15,7,4,7,5,-5,-3,-1,-1
47,149,74,37,2,141.0,2.0,95,15,12,7,0,1,1,1,1,0
48,151,78,39,6,144.0,2.0,105,16,16,9,4,3,-1,-1,1,1
49,153,78,39,6,147.0,0.5,95,16,16,9,4,3,4,2,0,1
50,157,78,39,6,150.0,1.0,95,16,16,9,4,3,-1,-1,0,1
51,160,73,36,1,153.0,2.0,105,17,11,6,11,7,-1,-1,-1,0
52,162,73,36,1,156.0,0.5,95,17,11,6,11,7,4,2,0,0
53,166,76,38,4,159.0,2.0,95,17,14,8,2,2,0,0,1,1
54,168,78,39,6,162.0,1.0,105,18,16,9,4,3,-1,-1,1,2
55,172,81,41,9,165.0,1.0,95,18,19,11,7,5,2,1,1,3
56,175,76,38,4,168.0,1.0,95,18,14,8,2,2,-2,-1,-1,2
57,177,74,37,2,170.0,0.5,105,19,12,7,0,1,0,0,-1,1
58,186,71,35,11,173.0,0.5,95,19,9,5,9,6,2,1,-1,0
59,190,74,37,2,176.0,2.0,95,19,12,7,0,1,0,0,1,1
60,192,78,39,6,179.0,2.0,105,20,16,9,4,3,-1,-1,1,2
61,194,78,39,6,182.0,0.5,95,20,16,9,4,3,4,2,0,2
62,198,78,39,6,185.0,1.0,95,20,16,9,4,3,-1,-1,0,2
63,201,74,37,2,188.0,0.5,105,21,12,7,0,1,0,0,-1,1
64,210,73,36,1,191.0,0.5,95,21,11,6,11,7,4,2,-1,0
65,214,76,38,4,194.0,2.0,95,21,14,8,2,2,0,0,1,1
66,216,78,39,6,197.0,1.0,105,22,16,9,4,3,-1,-1,1,2
67,219,81,41,9,200.0,1.0,95,22,19,11,7,5,3,2,1,3
68,222,83,42,11,203.0,1.0,95,22,21,12,9,6,2,1,1,4
69,225,78,39,6,206.0,1.0,105,23,16,9,4,3,-1,-1,-1,3
70,228,69,34,9,209.0,1.0,95,23,7,4,7,5,-5,-3,-1,2
71,231,74,37,2,212.0,2.0,95,23,12,7,0,1,1,1,1,3
