,index,midi_note_num,diatonic_note_num,chromatic_pitch_class,onset,duration,velocity,bar_count,relative_chromatic_pitch,relative_diatonic_pitch,chromatic_scale_degree,diatonic_scale_degree,chromatic_interval,diatonic_interval,parsons_code,parsons_cumsum
0,1,69,34,9,1.0,1.5,105,0,0,0,0,1,0,0,0,0
1,4,76,38,4,4.0,2.0,95,0,7,4,7,5,0,0,1,1
2,6,78,39,6,7.0,1.5,105,1,9,5,9,6,5,3,1,2
3,9,78,39,6,10.0,1.5,95,1,9,5,9,6,-3,-2,0,2
4,12,69,34,9,13.0,1.5,105,2,0,0,0,1,-4,-2,-1,1
5,15,76,38,4,16.0,2.0,95,2,7,4,7,5,0,0,1,2
6,17,76,38,4,19.0,1.5,105,3,7,4,7,5,-2,-1,0,2
7,20,71,35,11,22.0,2.0,95,3,2,1,2,2,2,1,-1,1
8,22,69,34,9,25.0,1.5,105,4,0,0,0,1,-4,-2,-1,0
9,25,76,38,4,28.0,2.0,95,4,7,4,7,5,0,0,1,1
10,27,78,39,6,31.0,1.5,105,5,9,5,9,6,5,3,1,2
11,30,78,39,6,34.0,1.5,95,5,9,5,9,6,-3,-2,0,2
12,33,69,34,9,37.0,1.5,105,6,0,0,0,1,-4,-2,-1,1
13,36,71,35,11,40.0,0.5,95,6,2,1,2,2,-2,-1,1,2
14,39,73,36,1,43.0,1.5,105,7,4,2,4,3,2,1,1,3
15,42,69,34,9,46.0,2.0,95,7,0,0,0,1,0,0,-1,2
16,44,69,34,9,49.0,1.5,105,8,0,0,0,1,-7,-4,0,2
17,47,76,38,4,52.0,2.0,95,8,7,4,7,5,0,0,1,3
18,49,78,39,6,55.0,1.5,105,9,9,5,9,6,5,3,1,4
19,52,78,39,6,58.0,1.5,95,9,9,5,9,6,-3,-2,0,4
20,55,69,34,9,61.0,1.5,105,10,0,0,0,1,-4,-2,-1,3
21,58,76,38,4,64.0,2.0,95,10,7,4,7,5,0,0,1,4
22,60,76,38,4,67.0,1.5,105,11,7,4,7,5,-2,-1,0,4
23,63,71,35,11,70.0,2.0,95,11,2,1,2,2,2,1,-1,3
24,65,69,34,9,73.0,1.5,105,12,0,0,0,1,-4,-2,-1,2
25,68,76,38,4,76.0,2.0,95,12,7,4,7,5,0,0,1,3
26,70,78,39,6,79.0,1.5,105,13,9,5,9,6,5,3,1,4
27,73,78,39,6,82.0,1.5,95,13,9,5,9,6,-3,-2,0,4
28,76,69,34,9,85.0,1.5,105,14,0,0,0,1,-4,-2,-1,3
29,79,71,35,11,88.0,0.5,95,14,2,1,2,2,-2,-1,1,4
30,82,73,36,1,91.0,1.5,105,15,4,2,4,3,2,1,1,5
31,85,69,34,9,94.0,2.0,95,15,0,0,0,1,0,0,-1,4
32,87,81,41,9,97.0,1.5,105,16,12,7,0,1,1,1,1,5
33,90,81,41,9,100.0,2.0,95,16,12,7,0,1,0,0,0,5
34,92,78,39,6,103.0,1.5,105,17,9,5,9,6,2,1,-1,4
35,95,78,39,6,106.0,1.5,95,17,9,5,9,6,-3,-2,0,4
36,98,81,41,9,109.0,1.5,105,18,12,7,0,1,8,5,1,5
37,101,81,41,9,112.0,1.5,95,18,12,7,0,1,0,0,0,5
38,104,76,38,4,115.0,1.5,105,19,7,4,7,5,-2,-1,-1,4
39,107,71,35,11,118.0,2.0,95,19,2,1,2,2,2,1,-1,3
40,109,81,41,9,121.0,1.5,105,20,12,7,0,1,8,5,1,4
41,112,81,41,9,124.0,2.0,95,20,12,7,0,1,0,0,0,4
42,114,78,39,6,127.0,1.5,105,21,9,5,9,6,2,1,-1,3
43,117,78,39,6,130.0,1.5,95,21,9,5,9,6,-3,-2,0,3
44,120,69,34,9,133.0,1.5,105,22,0,0,0,1,-4,-2,-1,2
45,123,71,35,11,136.0,0.5,95,22,2,1,2,2,-2,-1,1,3
46,126,73,36,1,139.0,1.5,105,23,4,2,4,3,2,1,1,4
47,129,69,34,9,142.0,2.0,95,23,0,0,0,1,0,0,-1,3
48,131,81,41,9,145.0,1.5,105,24,12,7,0,1,1,1,1,4
49,134,81,41,9,148.0,2.0,95,24,12,7,0,1,0,0,0,4
50,136,78,39,6,151.0,1.5,105,25,9,5,9,6,2,1,-1,3
51,139,78,39,6,154.0,1.5,95,25,9,5,9,6,-3,-2,0,3
52,142,81,41,9,157.0,1.5,105,26,12,7,0,1,8,5,1,4
53,145,81,41,9,160.0,1.5,95,26,12,7,0,1,0,0,0,4
54,148,76,38,4,163.0,1.5,105,27,7,4,7,5,-2,-1,-1,3
55,151,71,35,11,166.0,2.0,95,27,2,1,2,2,2,1,-1,2
56,153,81,41,9,169.0,1.5,105,28,12,7,0,1,8,5,1,3
57,156,81,41,9,172.0,2.0,95,28,12,7,0,1,0,0,0,3
58,158,78,39,6,175.0,1.5,105,29,9,5,9,6,2,1,-1,2
59,161,78,39,6,178.0,1.5,95,29,9,5,9,6,-3,-2,0,2
60,164,69,34,9,181.0,1.5,105,30,0,0,0,1,-4,-2,-1,1
61,167,71,35,11,184.0,0.5,95,30,2,1,2,2,-2,-1,1,2
62,170,73,36,1,187.0,1.5,105,31,4,2,4,3,2,1,1,3
63,173,69,34,9,190.0,2.0,95,31,0,0,0,1,0,0,-1,2
64,175,69,34,9,193.0,1.5,105,32,0,0,0,1,-7,-4,0,2
65,178,69,34,9,196.0,1.5,95,32,0,0,0,1,-7,-4,0,2
66,181,78,39,6,199.0,1.5,105,33,9,5,9,6,2,1,1,3
67,184,78,39,6,202.0,1.5,95,33,9,5,9,6,-3,-2,0,3
68,187,69,34,9,205.0,1.5,105,34,0,0,0,1,-4,-2,-1,2
69,190,69,34,9,208.0,1.5,95,34,0,0,0,1,-7,-4,0,2
70,193,76,38,4,211.0,1.5,105,35,7,4,7,5,0,0,1,3
71,196,71,35,11,214.0,2.0,95,35,2,1,2,2,2,1,-1,2
72,198,69,34,9,217.0,1.5,105,36,0,0,0,1,-4,-2,-1,1
73,201,69,34,9,220.0,1.5,95,36,0,0,0,1,-7,-4,0,1
74,204,78,39,6,223.0,1.5,105,37,9,5,9,6,2,1,1,2
75,207,78,39,6,226.0,1.5,95,37,9,5,9,6,-3,-2,0,2
76,210,69,34,9,229.0,1.5,105,38,0,0,0,1,-4,-2,-1,1
77,213,71,35,11,232.0,0.5,95,38,2,1,2,2,-2,-1,1,2
78,216,73,36,1,235.0,1.5,105,39,4,2,4,3,2,1,1,3
79,219,69,34,9,238.0,2.0,95,39,0,0,0,1,0,0,-1,2
80,221,69,34,9,241.0,1.5,105,40,0,0,0,1,-7,-4,0,2
81,224,69,34,9,244.0,1.5,95,40,0,0,0,1,-7,-4,0,2
82,227,78,39,6,247.0,1.5,105,41,9,5,9,6,2,1,1,3
83,230,78,39,6,250.0,1.5,95,41,9,5,9,6,-3,-2,0,3
84,233,69,34,9,253.0,1.5,105,42,0,0,0,1,-4,-2,-1,2
85,236,69,34,9,256.0,1.5,95,42,0,0,0,1,-7,-4,0,2
86,239,76,38,4,259.0,1.5,105,43,7,4,7,5,0,0,1,3
87,242,71,35,11,262.0,2.0,95,43,2,1,2,2,2,1,-1,2
88,244,69,34,9,265.0,1.5,105,44,0,0,0,1,-4,-2,-1,1
89,247,69,34,9,268.0,1.5,95,44,0,0,0,1,-7,-4,0,1
90,250,78,39,6,271.0,1.5,105,45,9,5,9,6,2,1,1,2
91,253,78,39,6,274.0,1.5,95,45,9,5,9,6,-3,-2,0,2
92,256,69,34,9,277.0,1.5,105,46,0,0,0,1,-4,-2,-1,1
93,259,71,35,11,280.0,0.5,95,46,2,1,2,2,-2,-1,1,2
94,262,73,36,1,283.0,1.5,105,47,4,2,4,3,2,1,1,3
95,265,69,34,9,286.0,2.0,95,47,0,0,0,1,0,0,-1,2
96,267,81,41,9,289.0,1.5,105,48,12,7,0,1,1,1,1,3
97,270,81,41,9,292.0,1.5,95,48,12,7,0,1,0,0,0,3
98,273,78,39,6,295.0,0.5,105,49,9,5,9,6,2,1,-1,2
99,276,78,39,6,298.0,1.5,95,49,9,5,9,6,2,1,0,2
100,279,81,41,9,301.0,1.5,105,50,12,7,0,1,8,5,1,3
101,282,81,41,9,304.0,1.5,95,50,12,7,0,1,0,0,0,3
102,285,76,38,4,307.0,1.5,105,51,7,4,7,5,-2,-1,-1,2
103,288,71,35,11,310.0,2.0,95,51,2,1,2,2,2,1,-1,1
104,290,81,41,9,313.0,1.5,105,52,12,7,0,1,8,5,1,2
105,293,81,41,9,316.0,1.5,95,52,12,7,0,1,0,0,0,2
106,296,78,39,6,319.0,0.5,105,53,9,5,9,6,2,1,-1,1
107,299,78,39,6,322.0,1.5,95,53,9,5,9,6,2,1,0,1
108,302,69,34,9,325.0,1.5,105,54,0,0,0,1,-4,-2,-1,0
109,305,71,35,11,328.0,0.5,95,54,2,1,2,2,-2,-1,1,1
110,308,73,36,1,331.0,1.5,105,55,4,2,4,3,2,1,1,2
111,311,69,34,9,334.0,2.0,95,55,0,0,0,1,-12,-7,-1,1
112,313,81,41,9,337.0,1.5,105,56,12,7,0,1,1,1,1,2
113,316,81,41,9,340.0,1.5,95,56,12,7,0,1,0,0,0,2
114,319,78,39,6,343.0,0.5,105,57,9,5,9,6,2,1,-1,1
115,322,78,39,6,346.0,1.5,95,57,9,5,9,6,2,1,0,1
116,325,81,41,9,349.0,1.5,105,58,12,7,0,1,8,5,1,2
117,328,81,41,9,352.0,1.5,95,58,12,7,0,1,0,0,0,2
118,331,76,38,4,355.0,1.5,105,59,7,4,7,5,-2,-1,-1,1
119,334,71,35,11,358.0,2.0,95,59,2,1,2,2,2,1,-1,0
120,336,81,41,9,361.0,1.5,105,60,12,7,0,1,8,5,1,1
121,339,81,41,9,364.0,1.5,95,60,12,7,0,1,0,0,0,1
122,342,78,39,6,367.0,0.5,105,61,9,5,9,6,2,1,-1,0
123,345,78,39,6,370.0,1.5,95,61,9,5,9,6,2,1,0,0
124,348,69,34,9,373.0,1.5,105,62,0,0,0,1,-4,-2,-1,-1
125,351,71,35,11,376.0,0.5,95,62,2,1,2,2,-2,-1,1,0
126,354,73,36,1,379.0,1.5,105,63,4,2,4,3,2,1,1,1
127,357,69,34,9,382.0,2.0,95,63,0,0,0,1,-12,-7,-1,0
