,index,midi_note_num,diatonic_note_num,chromatic_pitch_class,onset,duration,velocity,bar_count,relative_chromatic_pitch,relative_diatonic_pitch,chromatic_scale_degree,diatonic_scale_degree,chromatic_interval,diatonic_interval,parsons_code,parsons_cumsum
0,1,62,30,2,1.0,2.0,105,0,0,0,0,1,0,0,0,0
1,3,69,34,9,4.0,2.0,95,0,7,4,7,5,3,2,1,1
2,5,78,39,6,7.0,1.0,105,1,16,9,4,3,4,2,1,2
3,8,76,38,4,10.0,1.0,95,1,14,8,2,2,-2,-1,-1,1
4,11,71,35,11,13.0,2.0,105,2,9,5,9,6,2,1,-1,0
5,13,74,37,2,16.0,2.0,95,2,12,7,0,1,1,1,1,1
6,15,69,34,9,19.0,1.0,105,3,7,4,7,5,-2,-1,-1,0
7,19,66,32,6,22.0,1.0,95,3,4,2,4,3,-1,-1,-1,-1
8,22,62,30,2,25.0,2.0,105,4,0,0,0,1,-2,-1,-1,-2
9,24,69,34,9,28.0,2.0,95,4,7,4,7,5,3,2,1,-1
10,26,78,39,6,31.0,0.5,105,5,16,9,4,3,4,2,1,0
11,30,76,38,4,34.0,1.0,95,5,14,8,2,2,-2,-1,-1,-1
12,33,71,35,11,37.0,1.0,105,6,9,5,9,6,2,1,-1,-2
13,36,73,36,1,40.0,0.5,95,6,11,6,11,7,2,1,1,-1
14,40,74,37,2,43.0,5.0,105,7,12,7,0,1,1,1,1,0
15,42,62,30,2,49.0,2.0,105,8,0,0,0,1,-7,-4,-1,-1
16,44,69,34,9,52.0,2.0,95,8,7,4,7,5,3,2,1,0
17,46,78,39,6,55.0,1.0,105,9,16,9,4,3,4,2,1,1
18,49,76,38,4,58.0,1.0,95,9,14,8,2,2,-2,-1,-1,0
19,52,71,35,11,61.0,2.0,105,10,9,5,9,6,2,1,-1,-1
20,54,74,37,2,64.0,2.0,95,10,12,7,0,1,1,1,1,0
21,56,69,34,9,67.0,1.0,105,11,7,4,7,5,-2,-1,-1,-1
22,60,66,32,6,70.0,1.0,95,11,4,2,4,3,-1,-1,-1,-2
23,63,62,30,2,73.0,2.0,105,12,0,0,0,1,-2,-1,-1,-3
24,65,69,34,9,76.0,2.0,95,12,7,4,7,5,3,2,1,-2
25,67,78,39,6,79.0,0.5,105,13,16,9,4,3,4,2,1,-1
26,71,76,38,4,82.0,1.0,95,13,14,8,2,2,-2,-1,-1,-2
27,74,71,35,11,85.0,1.0,105,14,9,5,9,6,2,1,-1,-3
28,77,73,36,1,88.0,0.5,95,14,11,6,11,7,2,1,1,-2
29,81,74,37,2,91.0,5.0,105,15,12,7,0,1,1,1,1,-1
30,83,76,38,4,97.0,1.0,105,16,14,8,2,2,7,4,1,0
31,86,74,37,2,100.0,1.0,95,16,12,7,0,1,-2,-1,-1,-1
32,89,69,34,9,103.0,2.0,105,17,7,4,7,5,-2,-1,-1,-2
33,91,69,34,9,106.0,1.0,95,17,7,4,7,5,0,0,0,-2
34,94,79,40,7,109.0,2.0,105,18,17,10,5,4,3,2,1,-1
35,96,78,39,6,112.0,2.0,95,18,16,9,4,3,2,1,-1,-2
36,98,73,36,1,115.0,1.0,105,19,11,6,11,7,-1,-1,-1,-3
37,101,69,34,9,118.0,1.0,95,19,7,4,7,5,-4,-2,-1,-4
38,104,76,38,4,121.0,1.0,105,20,14,8,2,2,2,1,1,-3
39,108,74,37,2,124.0,2.0,95,20,12,7,0,1,-2,-1,-1,-4
40,110,69,34,9,127.0,1.0,105,21,7,4,7,5,-2,-1,-1,-5
41,113,69,34,9,130.0,1.0,95,21,7,4,7,5,-2,-1,0,-5
42,116,79,40,7,133.0,2.0,105,22,17,10,5,4,3,2,1,-4
43,118,78,39,6,136.0,1.0,95,22,16,9,4,3,2,1,-1,-5
44,121,76,38,4,139.0,1.0,105,23,14,8,2,2,2,1,-1,-6
45,124,69,34,9,142.0,2.0,95,23,7,4,7,5,-4,-2,-1,-7
46,126,76,38,4,145.0,1.0,105,24,14,8,2,2,7,4,1,-6
47,129,74,37,2,148.0,1.0,95,24,12,7,0,1,-2,-1,-1,-7
48,132,69,34,9,151.0,2.0,105,25,7,4,7,5,-2,-1,-1,-8
49,134,69,34,9,154.0,1.0,95,25,7,4,7,5,0,0,0,-8
50,137,79,40,7,157.0,2.0,105,26,17,10,5,4,3,2,1,-7
51,139,78,39,6,160.0,2.0,95,26,16,9,4,3,2,1,-1,-8
52,141,73,36,1,163.0,1.0,105,27,11,6,11,7,-1,-1,-1,-9
53,144,69,34,9,166.0,1.0,95,27,7,4,7,5,-4,-2,-1,-10
54,147,76,38,4,169.0,1.0,105,28,14,8,2,2,2,1,1,-9
55,151,74,37,2,172.0,2.0,95,28,12,7,0,1,-2,-1,-1,-10
56,153,69,34,9,175.0,1.0,105,29,7,4,7,5,-2,-1,-1,-11
57,156,69,34,9,178.0,1.0,95,29,7,4,7,5,-2,-1,0,-11
58,159,79,40,7,181.0,2.0,105,30,17,10,5,4,3,2,1,-10
59,161,78,39,6,184.0,1.0,95,30,16,9,4,3,2,1,-1,-11
60,164,76,38,4,187.0,1.0,105,31,14,8,2,2,2,1,-1,-12
61,167,71,35,11,190.0,1.0,95,31,9,5,9,6,-2,-1,-1,-13
62,170,66,32,6,193.0,3.0,105,32,4,2,4,3,-1,-1,-1,-14
63,171,67,33,7,196.0,1.0,95,32,5,3,5,4,1,1,1,-13
64,174,69,34,9,199.0,2.0,105,33,7,4,7,5,2,1,1,-12
65,176,74,37,2,202.0,2.0,95,33,12,7,0,1,0,0,1,-11
66,178,69,34,9,205.0,1.0,105,34,7,4,7,5,-2,-1,-1,-12
67,185,64,31,4,211.5,1.0,105,35,2,1,2,2,-2,-1,-1,-13
68,188,67,33,7,214.5,1.0,95,35,5,3,5,4,-2,-1,1,-12
69,191,66,32,6,217.5,1.0,105,36,4,2,4,3,2,1,-1,-13
70,195,67,33,7,220.5,1.0,95,36,5,3,5,4,1,1,1,-12
71,198,71,35,11,223.5,2.0,105,37,9,5,9,6,4,2,1,-11
72,200,69,34,9,226.5,2.0,95,37,7,4,7,5,0,0,-1,-12
73,202,71,35,11,229.5,0.5,105,38,9,5,9,6,-3,-2,1,-11
74,206,73,36,1,232.5,1.0,95,38,11,6,11,7,2,1,1,-10
75,209,74,37,2,235.5,3.0,105,39,12,7,0,1,1,1,1,-9
76,210,74,37,2,238.5,2.0,95,39,12,7,0,1,0,0,0,-9
77,212,66,32,6,241.5,3.0,105,40,4,2,4,3,-3,-2,-1,-10
78,213,67,33,7,244.5,1.0,95,40,5,3,5,4,1,1,1,-9
79,216,69,34,9,247.5,2.0,105,41,7,4,7,5,2,1,1,-8
80,218,74,37,2,250.5,2.0,95,41,12,7,0,1,0,0,1,-7
81,220,69,34,9,253.5,1.0,105,42,7,4,7,5,-2,-1,-1,-8
82,227,64,31,4,260.0,1.0,105,43,2,1,2,2,-2,-1,-1,-9
83,230,67,33,7,263.0,1.0,95,43,5,3,5,4,-2,-1,1,-8
84,233,66,32,6,266.0,1.0,105,44,4,2,4,3,2,1,-1,-9
85,237,67,33,7,269.0,1.0,95,44,5,3,5,4,1,1,1,-8
86,240,71,35,11,272.0,2.0,105,45,9,5,9,6,4,2,1,-7
87,242,69,34,9,275.0,2.0,95,45,7,4,7,5,0,0,-1,-8
88,244,71,35,11,278.0,0.5,105,46,9,5,9,6,-3,-2,1,-7
89,248,73,36,1,281.0,1.0,95,46,11,6,11,7,2,1,1,-6
90,251,74,37,2,284.0,5.0,105,47,12,7,0,1,1,1,1,-5
