,index,midi_note_num,diatonic_note_num,chromatic_pitch_class,onset,duration,velocity,bar_count,relative_chromatic_pitch,relative_diatonic_pitch,chromatic_scale_degree,diatonic_scale_degree,chromatic_interval,diatonic_interval,parsons_code,parsons_cumsum
0,2,71,35,11,2.0,1.0,105,0,2,1,2,2,0,0,0,0
1,6,71,35,11,6.0,1.0,95,0,2,1,2,2,-5,-3,0,0
2,10,78,39,6,10.0,1.0,105,1,9,5,9,6,2,1,1,1
3,14,73,36,1,14.0,2.0,95,1,4,2,4,3,2,1,-1,0
4,17,78,39,6,18.0,1.0,105,2,9,5,9,6,2,1,1,1
5,21,76,38,4,22.0,1.0,95,2,7,4,7,5,-2,-1,-1,0
6,25,73,36,1,26.0,2.0,105,3,4,2,4,3,2,1,-1,-1
7,28,71,35,11,30.0,2.0,95,3,2,1,2,2,2,1,-1,-2
8,31,71,35,11,34.0,1.0,105,4,2,1,2,2,-5,-3,0,-2
9,35,71,35,11,38.0,1.0,95,4,2,1,2,2,-5,-3,0,-2
10,39,78,39,6,42.0,1.0,105,5,9,5,9,6,2,1,1,-1
11,43,73,36,1,46.0,2.0,95,5,4,2,4,3,2,1,-1,-2
12,46,78,39,6,50.0,1.0,105,6,9,5,9,6,2,1,1,-1
13,50,76,38,4,54.0,1.0,95,6,7,4,7,5,-2,-1,-1,-2
14,54,73,36,1,58.0,2.0,105,7,4,2,4,3,2,1,-1,-3
15,56,69,34,9,62.0,2.0,95,7,0,0,0,1,0,0,-1,-4
16,59,71,35,11,66.0,1.0,105,8,2,1,2,2,-5,-3,1,-3
17,63,71,35,11,70.0,1.0,95,8,2,1,2,2,-5,-3,0,-3
18,67,78,39,6,74.0,1.0,105,9,9,5,9,6,2,1,1,-2
19,71,73,36,1,78.0,2.0,95,9,4,2,4,3,2,1,-1,-3
20,74,78,39,6,82.0,1.0,105,10,9,5,9,6,2,1,1,-2
21,78,76,38,4,86.0,1.0,95,10,7,4,7,5,-2,-1,-1,-3
22,82,73,36,1,90.0,2.0,105,11,4,2,4,3,2,1,-1,-4
23,85,71,35,11,94.0,2.0,95,11,2,1,2,2,2,1,-1,-5
24,88,71,35,11,98.0,1.0,105,12,2,1,2,2,-5,-3,0,-5
25,92,71,35,11,102.0,1.0,95,12,2,1,2,2,-5,-3,0,-5
26,96,78,39,6,106.0,1.0,105,13,9,5,9,6,2,1,1,-4
27,100,73,36,1,110.0,2.0,95,13,4,2,4,3,2,1,-1,-5
28,103,78,39,6,114.0,1.0,105,14,9,5,9,6,2,1,1,-4
29,107,76,38,4,118.0,1.0,95,14,7,4,7,5,-2,-1,-1,-5
30,111,73,36,1,122.0,2.0,105,15,4,2,4,3,2,1,-1,-6
31,113,69,34,9,126.0,2.0,95,15,0,0,0,1,0,0,-1,-7
32,116,81,41,9,130.0,2.0,105,16,12,7,0,1,5,3,1,-6
33,119,81,41,9,134.0,2.0,95,16,12,7,0,1,5,3,0,-6
34,122,78,39,6,138.0,1.0,105,17,9,5,9,6,2,1,-1,-7
35,126,73,36,1,142.0,2.0,95,17,4,2,4,3,2,1,-1,-8
36,129,78,39,6,146.0,1.0,105,18,9,5,9,6,2,1,1,-7
37,133,76,38,4,150.0,1.0,95,18,7,4,7,5,-2,-1,-1,-8
38,137,73,36,1,154.0,2.0,105,19,4,2,4,3,2,1,-1,-9
39,140,71,35,11,158.0,2.0,95,19,2,1,2,2,2,1,-1,-10
40,143,81,41,9,162.0,2.0,105,20,12,7,0,1,5,3,1,-9
41,146,81,41,9,166.0,2.0,95,20,12,7,0,1,5,3,0,-9
42,149,78,39,6,170.0,1.0,105,21,9,5,9,6,2,1,-1,-10
43,153,73,36,1,174.0,2.0,95,21,4,2,4,3,2,1,-1,-11
44,156,78,39,6,178.0,1.0,105,22,9,5,9,6,2,1,1,-10
45,160,76,38,4,182.0,1.0,95,22,7,4,7,5,-2,-1,-1,-11
46,164,73,36,1,186.0,2.0,105,23,4,2,4,3,2,1,-1,-12
47,166,69,34,9,190.0,2.0,95,23,0,0,0,1,0,0,-1,-13
48,169,81,41,9,194.0,2.0,105,24,12,7,0,1,5,3,1,-12
49,172,81,41,9,198.0,2.0,95,24,12,7,0,1,5,3,0,-12
50,175,78,39,6,202.0,1.0,105,25,9,5,9,6,2,1,-1,-13
51,179,73,36,1,206.0,2.0,95,25,4,2,4,3,2,1,-1,-14
52,182,78,39,6,210.0,1.0,105,26,9,5,9,6,2,1,1,-13
53,186,76,38,4,214.0,1.0,95,26,7,4,7,5,-2,-1,-1,-14
54,190,73,36,1,218.0,2.0,105,27,4,2,4,3,2,1,-1,-15
55,193,71,35,11,222.0,2.0,95,27,2,1,2,2,2,1,-1,-16
56,196,81,41,9,226.0,2.0,105,28,12,7,0,1,5,3,1,-15
57,199,81,41,9,230.0,2.0,95,28,12,7,0,1,5,3,0,-15
58,202,78,39,6,234.0,1.0,105,29,9,5,9,6,2,1,-1,-16
59,206,73,36,1,238.0,2.0,95,29,4,2,4,3,2,1,-1,-17
60,209,78,39,6,242.0,1.0,105,30,9,5,9,6,2,1,1,-16
61,213,76,38,4,246.0,1.0,95,30,7,4,7,5,-2,-1,-1,-17
62,217,73,36,1,250.0,2.0,105,31,4,2,4,3,2,1,-1,-18
63,219,69,34,9,254.0,2.0,95,31,0,0,0,1,0,0,-1,-19
64,222,71,35,11,258.0,1.0,105,32,2,1,2,2,-5,-3,1,-18
65,226,69,34,9,262.0,2.0,95,32,0,0,0,1,-7,-4,-1,-19
66,229,71,35,11,266.0,1.0,105,33,2,1,2,2,-5,-3,1,-18
67,233,73,36,1,270.0,2.0,95,33,4,2,4,3,2,1,1,-17
68,236,71,35,11,274.0,1.0,105,34,2,1,2,2,-5,-3,-1,-18
69,240,69,34,9,278.0,2.0,95,34,0,0,0,1,-7,-4,-1,-19
70,243,78,39,6,282.0,1.0,105,35,9,5,9,6,2,1,1,-18
71,247,71,35,11,286.0,2.0,95,35,2,1,2,2,2,1,-1,-19
72,250,71,35,11,290.0,1.0,105,36,2,1,2,2,-5,-3,0,-19
73,254,69,34,9,294.0,2.0,95,36,0,0,0,1,-7,-4,-1,-20
74,257,71,35,11,298.0,1.0,105,37,2,1,2,2,-5,-3,1,-19
75,261,73,36,1,302.0,2.0,95,37,4,2,4,3,2,1,1,-18
76,264,78,39,6,306.0,1.0,105,38,9,5,9,6,2,1,1,-17
77,268,76,38,4,310.0,1.0,95,38,7,4,7,5,-2,-1,-1,-18
78,272,73,36,1,314.0,2.0,105,39,4,2,4,3,2,1,-1,-19
79,274,69,34,9,318.0,2.0,95,39,0,0,0,1,0,0,-1,-20
80,277,71,35,11,322.0,1.0,105,40,2,1,2,2,-5,-3,1,-19
81,281,69,34,9,326.0,2.0,95,40,0,0,0,1,-7,-4,-1,-20
82,284,71,35,11,330.0,1.0,105,41,2,1,2,2,-5,-3,1,-19
83,288,73,36,1,334.0,2.0,95,41,4,2,4,3,2,1,1,-18
84,291,71,35,11,338.0,1.0,105,42,2,1,2,2,-5,-3,-1,-19
85,295,69,34,9,342.0,2.0,95,42,0,0,0,1,-7,-4,-1,-20
86,298,78,39,6,346.0,1.0,105,43,9,5,9,6,2,1,1,-19
87,302,71,35,11,350.0,2.0,95,43,2,1,2,2,2,1,-1,-20
88,305,71,35,11,354.0,1.0,105,44,2,1,2,2,-5,-3,0,-20
89,309,69,34,9,358.0,2.0,95,44,0,0,0,1,-7,-4,-1,-21
90,312,71,35,11,362.0,1.0,105,45,2,1,2,2,-5,-3,1,-20
91,316,73,36,1,366.0,2.0,95,45,4,2,4,3,2,1,1,-19
92,319,78,39,6,370.0,1.0,105,46,9,5,9,6,2,1,1,-18
93,323,76,38,4,374.0,1.0,95,46,7,4,7,5,-2,-1,-1,-19
94,327,73,36,1,378.0,2.0,105,47,4,2,4,3,2,1,-1,-20
95,329,69,34,9,382.0,2.0,95,47,0,0,0,1,0,0,-1,-21
96,332,81,41,9,386.0,2.0,105,48,12,7,0,1,5,3,1,-20
97,335,73,36,1,390.0,2.0,95,48,4,2,4,3,-3,-2,-1,-21
98,338,78,39,6,394.0,1.0,105,49,9,5,9,6,2,1,1,-20
99,342,73,36,1,398.0,2.0,95,49,4,2,4,3,-3,-2,-1,-21
100,345,78,39,6,402.0,1.0,105,50,9,5,9,6,2,1,1,-20
101,349,76,38,4,406.0,1.0,95,50,7,4,7,5,-2,-1,-1,-21
102,353,73,36,1,410.0,2.0,105,51,4,2,4,3,2,1,-1,-22
103,356,71,35,11,414.0,2.0,95,51,2,1,2,2,2,1,-1,-23
104,359,81,41,9,418.0,2.0,105,52,12,7,0,1,5,3,1,-22
105,362,73,36,1,422.0,2.0,95,52,4,2,4,3,-3,-2,-1,-23
106,365,78,39,6,426.0,1.0,105,53,9,5,9,6,2,1,1,-22
107,369,73,36,1,430.0,2.0,95,53,4,2,4,3,-3,-2,-1,-23
108,372,78,39,6,434.0,1.0,105,54,9,5,9,6,2,1,1,-22
109,376,76,38,4,438.0,1.0,95,54,7,4,7,5,-2,-1,-1,-23
110,380,73,36,1,442.0,2.0,105,55,4,2,4,3,2,1,-1,-24
111,382,69,34,9,446.0,2.0,95,55,0,0,0,1,0,0,-1,-25
112,385,81,41,9,450.0,2.0,105,56,12,7,0,1,5,3,1,-24
113,388,73,36,1,454.0,2.0,95,56,4,2,4,3,-3,-2,-1,-25
114,391,78,39,6,458.0,1.0,105,57,9,5,9,6,2,1,1,-24
115,395,73,36,1,462.0,2.0,95,57,4,2,4,3,-3,-2,-1,-25
116,398,78,39,6,466.0,1.0,105,58,9,5,9,6,2,1,1,-24
117,402,76,38,4,470.0,1.0,95,58,7,4,7,5,-2,-1,-1,-25
118,406,73,36,1,474.0,2.0,105,59,4,2,4,3,2,1,-1,-26
119,409,71,35,11,478.0,2.0,95,59,2,1,2,2,2,1,-1,-27
120,412,71,35,11,482.0,1.0,105,60,2,1,2,2,-5,-3,0,-27
121,416,69,34,9,486.0,2.0,95,60,0,0,0,1,-7,-4,-1,-28
122,419,71,35,11,490.0,1.0,105,61,2,1,2,2,-5,-3,1,-27
123,423,73,36,1,494.0,2.0,95,61,4,2,4,3,2,1,1,-26
124,426,78,39,6,498.0,1.0,105,62,9,5,9,6,2,1,1,-25
125,430,76,38,4,502.0,1.0,95,62,7,4,7,5,-2,-1,-1,-26
126,434,73,36,1,506.0,2.0,105,63,4,2,4,3,2,1,-1,-27
127,436,69,34,9,510.0,4.0,95,63,0,0,0,1,0,0,-1,-28
