,index,midi_note_num,diatonic_note_num,chromatic_pitch_class,onset,duration,velocity,bar_count,relative_chromatic_pitch,relative_diatonic_pitch,chromatic_scale_degree,diatonic_scale_degree,chromatic_interval,diatonic_interval,parsons_code,parsons_cumsum
0,3,86,44,2,1.0,1.0,105,0,24,14,0,1,0,0,0,0
1,6,81,41,9,5.0,1.0,95,0,19,11,7,5,1,1,-1,-1
2,9,78,39,6,9.0,1.0,105,1,16,9,4,3,2,1,-1,-2
3,13,69,34,9,13.0,2.0,95,1,7,4,7,5,1,1,-1,-3
4,16,69,34,9,17.0,1.0,105,2,7,4,7,5,1,1,0,-3
5,20,76,38,4,21.0,1.0,95,2,14,8,2,2,2,1,1,-2
6,24,83,42,11,25.0,1.0,105,3,21,12,9,6,2,1,1,-1
7,28,81,41,9,29.0,3.0,95,3,19,11,7,5,1,1,-1,-2
8,32,86,44,2,33.0,2.0,105,4,24,14,0,1,1,1,1,-1
9,35,81,41,9,37.0,2.0,95,4,19,11,7,5,1,1,-1,-2
10,38,78,39,6,41.0,1.0,105,5,16,9,4,3,2,1,-1,-3
11,42,69,34,9,45.0,4.0,95,5,7,4,7,5,1,1,-1,-4
12,43,69,34,9,49.0,1.0,105,6,7,4,7,5,0,0,0,-4
13,47,76,38,4,53.0,1.0,95,6,14,8,2,2,2,1,1,-3
14,51,74,37,2,57.0,2.0,105,7,12,7,0,1,1,1,-1,-4
15,54,74,37,2,61.0,2.0,95,7,12,7,0,1,1,1,0,-4
16,56,78,39,6,65.0,1.0,95,7,16,9,4,3,-8,-5,1,-3
17,59,74,37,2,69.0,1.0,95,7,12,7,0,1,-7,-4,-1,-4
18,61,78,39,6,71.0,1.0,105,8,16,9,4,3,2,1,1,-3
19,65,69,34,9,75.0,2.0,95,8,7,4,7,5,1,1,-1,-4
20,68,69,34,9,79.0,1.0,105,9,7,4,7,5,1,1,0,-4
21,72,76,38,4,83.0,1.0,95,9,14,8,2,2,2,1,1,-3
22,76,83,42,11,87.0,1.0,105,10,21,12,9,6,2,1,1,-2
23,80,81,41,9,91.0,3.0,95,10,19,11,7,5,1,1,-1,-3
24,84,86,44,2,95.0,2.0,105,11,24,14,0,1,1,1,1,-2
25,87,81,41,9,99.0,2.0,95,11,19,11,7,5,1,1,-1,-3
26,90,78,39,6,103.0,1.0,105,12,16,9,4,3,2,1,-1,-4
27,94,69,34,9,107.0,4.0,95,12,7,4,7,5,1,1,-1,-5
28,95,69,34,9,111.0,1.0,105,13,7,4,7,5,0,0,0,-5
29,99,76,38,4,115.0,1.0,95,13,14,8,2,2,2,1,1,-4
30,103,74,37,2,119.0,2.0,105,14,12,7,0,1,1,1,-1,-5
31,106,74,37,2,123.0,2.0,95,14,12,7,0,1,1,1,0,-5
32,109,71,35,11,127.0,1.0,95,14,9,5,9,6,-2,-1,-1,-6
33,113,74,37,2,131.0,1.0,95,14,12,7,0,1,1,1,1,-5
34,115,78,39,6,133.0,1.0,105,15,16,9,4,3,2,1,1,-4
35,119,78,39,6,137.0,2.0,95,15,16,9,4,3,1,0,0,-4
36,121,78,39,6,141.0,2.0,105,16,16,9,4,3,-5,-3,0,-4
37,123,78,39,6,145.0,1.0,95,16,16,9,4,3,-5,-3,0,-4
38,127,71,35,11,149.0,1.0,105,17,9,5,9,6,-2,-1,-1,-5
39,131,71,35,11,153.0,2.0,95,17,9,5,9,6,1,0,0,-5
40,133,71,35,11,157.0,1.0,105,18,9,5,9,6,5,3,0,-5
41,137,71,35,11,161.0,1.0,95,18,9,5,9,6,1,0,0,-5
42,141,78,39,6,165.0,1.0,105,19,16,9,4,3,2,1,1,-4
43,145,78,39,6,169.0,2.0,95,19,16,9,4,3,1,0,0,-4
44,147,78,39,6,173.0,2.0,105,20,16,9,4,3,-5,-3,0,-4
45,149,78,39,6,177.0,1.0,95,20,16,9,4,3,-5,-3,0,-4
46,153,71,35,11,181.0,2.0,105,21,9,5,9,6,-2,-1,-1,-5
47,155,70,35,10,185.0,4.0,95,21,8,5,8,6,0,0,-1,-6
48,156,71,35,11,189.0,1.0,105,22,9,5,9,6,1,0,1,-5
49,160,71,35,11,193.0,1.0,95,22,9,5,9,6,1,0,0,-5
50,164,78,39,6,197.0,1.0,105,23,16,9,4,3,2,1,1,-4
51,168,78,39,6,201.0,2.0,95,23,16,9,4,3,1,0,0,-4
52,170,78,39,6,205.0,2.0,105,24,16,9,4,3,-5,-3,0,-4
53,172,78,39,6,209.0,1.0,95,24,16,9,4,3,-5,-3,0,-4
54,176,71,35,11,213.0,1.0,105,25,9,5,9,6,-2,-1,-1,-5
55,180,71,35,11,217.0,2.0,95,25,9,5,9,6,1,0,0,-5
56,182,71,35,11,221.0,1.0,105,26,9,5,9,6,5,3,0,-5
57,186,71,35,11,225.0,1.0,95,26,9,5,9,6,1,0,0,-5
58,190,78,39,6,229.0,1.0,105,27,16,9,4,3,2,1,1,-4
59,194,78,39,6,233.0,2.0,95,27,16,9,4,3,1,0,0,-4
60,196,78,39,6,237.0,2.0,105,28,16,9,4,3,-5,-3,0,-4
61,198,78,39,6,241.0,1.0,95,28,16,9,4,3,-5,-3,0,-4
62,202,71,35,11,245.0,2.0,105,29,9,5,9,6,-2,-1,-1,-5
63,204,70,35,10,249.0,4.0,95,29,8,5,8,6,0,0,-1,-6
64,205,79,40,7,253.0,2.0,105,30,17,10,5,4,9,5,1,-5
65,208,74,37,2,257.0,2.0,95,30,12,7,0,1,-5,-3,-1,-6
66,211,71,35,11,261.0,1.0,105,31,9,5,9,6,-3,-2,-1,-7
67,215,83,42,11,265.0,4.0,95,31,21,12,9,6,9,5,1,-6
68,216,81,41,9,269.0,2.0,105,32,19,11,7,5,-2,-1,-1,-7
69,219,78,39,6,273.0,2.0,95,32,16,9,4,3,-3,-2,-1,-8
70,222,69,34,9,277.0,1.0,105,33,7,4,7,5,-9,-5,-1,-9
71,226,84,43,0,281.0,4.0,95,33,22,13,10,7,3,2,1,-8
72,227,79,40,7,285.0,2.0,105,34,17,10,5,4,-5,-3,-1,-9
73,230,74,37,2,289.0,2.0,95,34,12,7,0,1,-5,-3,-1,-10
74,233,71,35,11,293.0,1.0,105,35,9,5,9,6,-3,-2,-1,-11
75,237,83,42,11,297.0,4.0,95,35,21,12,9,6,9,5,1,-10
76,238,78,39,6,301.0,1.0,105,36,16,9,4,3,-5,-3,-1,-11
77,242,84,43,0,305.0,1.0,95,36,22,13,10,7,1,1,1,-10
78,246,79,40,7,309.0,1.0,105,37,17,10,5,4,1,1,-1,-11
79,250,79,40,7,313.0,2.0,95,37,17,10,5,4,1,1,0,-11
80,251,79,40,7,317.0,2.0,105,38,17,10,5,4,0,0,0,-11
81,254,74,37,2,321.0,2.0,95,38,12,7,0,1,-5,-3,-1,-12
82,257,71,35,11,325.0,1.0,105,39,9,5,9,6,-3,-2,-1,-13
83,261,83,42,11,329.0,4.0,95,39,21,12,9,6,9,5,1,-12
84,262,81,41,9,333.0,2.0,105,40,19,11,7,5,-2,-1,-1,-13
85,265,78,39,6,337.0,2.0,95,40,16,9,4,3,-3,-2,-1,-14
86,268,69,34,9,341.0,1.0,105,41,7,4,7,5,-9,-5,-1,-15
87,272,84,43,0,345.0,4.0,95,41,22,13,10,7,3,2,1,-14
88,273,79,40,7,349.0,2.0,105,42,17,10,5,4,-5,-3,-1,-15
89,276,74,37,2,353.0,2.0,95,42,12,7,0,1,-5,-3,-1,-16
90,279,71,35,11,357.0,1.0,105,43,9,5,9,6,-3,-2,-1,-17
91,283,83,42,11,361.0,4.0,95,43,21,12,9,6,9,5,1,-16
92,284,78,39,6,365.0,1.0,105,44,16,9,4,3,-5,-3,-1,-17
93,288,84,43,0,369.0,1.0,95,44,22,13,10,7,1,1,1,-16
94,292,79,40,7,373.0,1.0,105,45,17,10,5,4,1,1,-1,-17
95,296,79,40,7,377.0,2.0,95,45,17,10,5,4,1,1,0,-17
