,index,midi_note_num,diatonic_note_num,chromatic_pitch_class,onset,duration,velocity,bar_count,relative_chromatic_pitch,relative_diatonic_pitch,chromatic_scale_degree,diatonic_scale_degree,chromatic_interval,diatonic_interval,parsons_code,parsons_cumsum
0,1,62,30,2,1.0,2.0,105,0,0,0,0,1,0,0,0,0
1,3,65,32,5,4.0,1.0,95,0,3,2,3,3,3,2,1,1
2,6,67,33,7,7.0,1.0,95,0,5,3,5,4,2,1,1,2
3,9,65,32,5,10.0,1.0,105,1,3,2,3,3,1,1,-1,1
4,12,60,29,0,13.0,2.0,95,1,-2,-1,10,7,-2,-1,-1,0
5,14,62,30,2,16.0,2.0,95,1,0,0,0,1,2,1,1,1
6,16,62,30,2,19.0,2.0,105,2,0,0,0,1,5,3,0,1
7,18,65,32,5,22.0,1.0,95,2,3,2,3,3,3,2,1,2
8,21,67,33,7,25.0,1.0,95,2,5,3,5,4,2,1,1,3
9,24,62,30,2,28.0,1.0,105,3,0,0,0,1,-5,-3,-1,2
10,27,74,37,2,31.0,2.0,95,3,12,7,0,1,12,7,1,3
11,29,69,34,9,34.0,2.0,95,3,7,4,7,5,-3,-2,-1,2
12,31,62,30,2,37.0,2.0,105,4,0,0,0,1,2,1,-1,1
13,33,65,32,5,40.0,1.0,95,4,3,2,3,3,3,2,1,2
14,36,67,33,7,43.0,1.0,95,4,5,3,5,4,2,1,1,3
15,39,65,32,5,46.0,1.0,105,5,3,2,3,3,1,1,-1,2
16,42,60,29,0,49.0,2.0,95,5,-2,-1,10,7,-2,-1,-1,1
17,44,62,30,2,52.0,2.0,95,5,0,0,0,1,2,1,1,2
18,46,74,37,2,55.0,2.0,105,6,12,7,0,1,5,3,1,3
19,48,72,36,0,58.0,1.0,95,6,10,6,10,7,-2,-1,-1,2
20,51,69,34,9,61.0,1.0,95,6,7,4,7,5,-3,-2,-1,1
21,54,67,33,7,64.0,1.0,105,7,5,3,5,4,-2,-1,-1,0
22,57,65,32,5,67.0,1.0,95,7,3,2,3,3,-2,-1,-1,-1
23,60,64,31,4,70.0,1.0,95,7,2,1,2,2,-1,-1,-1,-2
24,63,62,30,2,73.0,2.0,105,8,0,0,0,1,2,1,-1,-3
25,65,65,32,5,76.0,1.0,95,8,3,2,3,3,3,2,1,-2
26,68,67,33,7,79.0,1.0,95,8,5,3,5,4,2,1,1,-1
27,71,65,32,5,82.0,1.0,105,9,3,2,3,3,1,1,-1,-2
28,74,60,29,0,85.0,2.0,95,9,-2,-1,10,7,-2,-1,-1,-3
29,76,62,30,2,88.0,2.0,95,9,0,0,0,1,2,1,1,-2
30,78,62,30,2,91.0,2.0,105,10,0,0,0,1,5,3,0,-2
31,80,65,32,5,94.0,1.0,95,10,3,2,3,3,3,2,1,-1
32,83,67,33,7,97.0,1.0,95,10,5,3,5,4,2,1,1,0
33,86,62,30,2,100.0,1.0,105,11,0,0,0,1,-5,-3,-1,-1
34,89,74,37,2,103.0,2.0,95,11,12,7,0,1,12,7,1,0
35,91,69,34,9,106.0,2.0,95,11,7,4,7,5,-3,-2,-1,-1
36,93,62,30,2,109.0,2.0,105,12,0,0,0,1,2,1,-1,-2
37,95,65,32,5,112.0,1.0,95,12,3,2,3,3,3,2,1,-1
38,98,67,33,7,115.0,1.0,95,12,5,3,5,4,2,1,1,0
39,101,65,32,5,118.0,1.0,105,13,3,2,3,3,1,1,-1,-1
40,104,60,29,0,121.0,2.0,95,13,-2,-1,10,7,-2,-1,-1,-2
41,106,62,30,2,124.0,2.0,95,13,0,0,0,1,2,1,1,-1
42,108,74,37,2,127.0,2.0,105,14,12,7,0,1,5,3,1,0
43,110,72,36,0,130.0,1.0,95,14,10,6,10,7,-2,-1,-1,-1
44,113,69,34,9,133.0,1.0,95,14,7,4,7,5,-3,-2,-1,-2
45,116,67,33,7,136.0,1.0,105,15,5,3,5,4,-2,-1,-1,-3
46,119,65,32,5,139.0,1.0,95,15,3,2,3,3,-2,-1,-1,-4
47,122,64,31,4,142.0,1.0,95,15,2,1,2,2,-1,-1,-1,-5
48,125,62,30,2,145.0,2.0,105,16,0,0,0,1,2,1,-1,-6
49,127,72,36,0,148.0,2.0,95,16,10,6,10,7,10,6,1,-5
50,129,62,30,2,151.0,1.0,95,16,0,0,0,1,-12,-7,-1,-6
51,132,74,37,2,154.0,2.0,105,17,12,7,0,1,12,7,1,-5
52,134,74,37,2,157.0,1.0,95,17,12,7,0,1,2,1,0,-5
53,137,77,39,5,160.0,2.0,95,17,15,9,3,3,3,2,1,-4
54,139,62,30,2,163.0,2.0,105,18,0,0,0,1,-14,-8,-1,-5
55,141,72,36,0,166.0,2.0,95,18,10,6,10,7,10,6,1,-4
56,143,72,36,0,169.0,1.0,95,18,10,6,10,7,-2,-1,0,-4
57,146,69,34,9,172.0,2.0,105,19,7,4,7,5,-3,-2,-1,-5
58,148,72,36,0,175.0,1.0,95,19,10,6,10,7,3,2,1,-4
59,151,69,34,9,178.0,1.0,95,19,7,4,7,5,2,1,-1,-5
60,154,62,30,2,181.0,2.0,105,20,0,0,0,1,-3,-2,-1,-6
61,156,72,36,0,184.0,2.0,95,20,10,6,10,7,10,6,1,-5
62,158,62,30,2,187.0,1.0,95,20,0,0,0,1,-12,-7,-1,-6
63,161,74,37,2,190.0,2.0,105,21,12,7,0,1,12,7,1,-5
64,163,74,37,2,193.0,1.0,95,21,12,7,0,1,2,1,0,-5
65,166,77,39,5,196.0,2.0,95,21,15,9,3,3,3,2,1,-4
66,168,74,37,2,199.0,2.0,105,22,12,7,0,1,-2,-1,-1,-5
67,170,72,36,0,202.0,1.0,95,22,10,6,10,7,-2,-1,-1,-6
68,173,69,34,9,205.0,1.0,95,22,7,4,7,5,-3,-2,-1,-7
69,176,67,33,7,208.0,1.0,105,23,5,3,5,4,-2,-1,-1,-8
70,179,65,32,5,211.0,1.0,95,23,3,2,3,3,-2,-1,-1,-9
71,182,64,31,4,214.0,1.0,95,23,2,1,2,2,-1,-1,-1,-10
72,185,62,30,2,217.0,2.0,105,24,0,0,0,1,2,1,-1,-11
73,187,72,36,0,220.0,2.0,95,24,10,6,10,7,10,6,1,-10
74,189,62,30,2,223.0,1.0,95,24,0,0,0,1,-12,-7,-1,-11
75,192,74,37,2,226.0,2.0,105,25,12,7,0,1,12,7,1,-10
76,194,74,37,2,229.0,1.0,95,25,12,7,0,1,2,1,0,-10
77,197,77,39,5,232.0,2.0,95,25,15,9,3,3,3,2,1,-9
78,199,62,30,2,235.0,2.0,105,26,0,0,0,1,-14,-8,-1,-10
79,201,72,36,0,238.0,2.0,95,26,10,6,10,7,10,6,1,-9
80,203,72,36,0,241.0,1.0,95,26,10,6,10,7,-2,-1,0,-9
81,206,69,34,9,244.0,2.0,105,27,7,4,7,5,-3,-2,-1,-10
82,208,72,36,0,247.0,1.0,95,27,10,6,10,7,3,2,1,-9
83,211,69,34,9,250.0,1.0,95,27,7,4,7,5,2,1,-1,-10
84,214,62,30,2,253.0,2.0,105,28,0,0,0,1,-3,-2,-1,-11
85,216,72,36,0,256.0,2.0,95,28,10,6,10,7,10,6,1,-10
86,218,62,30,2,259.0,1.0,95,28,0,0,0,1,-12,-7,-1,-11
87,221,74,37,2,262.0,2.0,105,29,12,7,0,1,12,7,1,-10
88,223,74,37,2,265.0,1.0,95,29,12,7,0,1,2,1,0,-10
89,226,77,39,5,268.0,2.0,95,29,15,9,3,3,3,2,1,-9
90,228,74,37,2,271.0,2.0,105,30,12,7,0,1,-2,-1,-1,-10
91,230,72,36,0,274.0,1.0,95,30,10,6,10,7,-2,-1,-1,-11
92,233,69,34,9,277.0,1.0,95,30,7,4,7,5,-3,-2,-1,-12
93,236,67,33,7,280.0,1.0,105,31,5,3,5,4,-2,-1,-1,-13
94,239,65,32,5,283.0,1.0,95,31,3,2,3,3,-2,-1,-1,-14
95,242,64,31,4,286.0,1.0,95,31,2,1,2,2,-1,-1,-1,-15
