,index,midi_note_num,diatonic_note_num,chromatic_pitch_class,onset,duration,velocity,bar_count,relative_chromatic_pitch,relative_diatonic_pitch,chromatic_scale_degree,diatonic_scale_degree,chromatic_interval,diatonic_interval,parsons_code,parsons_cumsum
0,0,69,34,9,0.0,1.0,105,0,0,0,0,1,0,0,0,0
1,4,76,38,4,4.0,1.0,95,0,7,4,7,5,2,1,1,1
2,9,76,38,4,8.0,1.0,105,1,7,4,7,5,7,4,0,1
3,13,76,38,4,12.0,1.0,95,1,7,4,7,5,-1,-1,0,1
4,17,67,33,7,16.0,1.0,105,2,-2,-1,10,7,-2,-1,-1,0
5,21,74,37,2,20.0,1.0,95,2,5,3,5,4,2,1,1,1
6,25,74,37,2,24.0,0.67,105,3,5,3,5,4,3,2,0,1
7,30,74,37,2,28.0,1.0,95,3,5,3,5,4,-2,-1,0,1
8,34,69,34,9,32.0,1.0,105,4,0,0,0,1,2,1,-1,0
9,38,76,38,4,36.0,1.0,95,4,7,4,7,5,2,1,1,1
10,42,81,41,9,40.0,1.0,105,5,12,7,0,1,2,1,1,2
11,46,76,38,4,44.0,0.67,95,5,7,4,7,5,2,1,-1,1
12,51,76,38,4,48.0,1.0,105,6,7,4,7,5,2,1,0,1
13,55,74,37,2,52.0,1.0,95,6,5,3,5,4,-2,-1,-1,0
14,60,72,36,0,56.0,1.0,105,7,3,2,3,3,-2,-1,-1,-1
15,64,69,34,9,60.0,3.0,95,7,0,0,0,1,-2,-1,-1,-2
16,66,71,35,11,64.0,1.0,95,7,2,1,2,2,2,1,1,-1
17,70,69,34,9,68.0,1.0,95,7,0,0,0,1,-7,-4,-1,-2
18,74,76,38,4,71.0,1.0,105,8,7,4,7,5,7,4,1,-1
19,78,76,38,4,75.0,1.0,95,8,7,4,7,5,-1,-1,0,-1
20,82,67,33,7,79.0,1.0,105,9,-2,-1,10,7,-2,-1,-1,-2
21,86,74,37,2,83.0,1.0,95,9,5,3,5,4,2,1,1,-1
22,90,74,37,2,87.0,0.67,105,10,5,3,5,4,3,2,0,-1
23,95,74,37,2,91.0,1.0,95,10,5,3,5,4,-2,-1,0,-1
24,99,69,34,9,95.0,1.0,105,11,0,0,0,1,2,1,-1,-2
25,103,76,38,4,99.0,1.0,95,11,7,4,7,5,2,1,1,-1
26,107,81,41,9,103.0,1.0,105,12,12,7,0,1,2,1,1,0
27,111,76,38,4,107.0,0.67,95,12,7,4,7,5,2,1,-1,-1
28,116,76,38,4,111.0,1.0,105,13,7,4,7,5,2,1,0,-1
29,120,74,37,2,115.0,1.0,95,13,5,3,5,4,-2,-1,-1,-2
30,125,72,36,0,119.0,1.0,105,14,3,2,3,3,-2,-1,-1,-3
31,129,69,34,9,123.0,3.0,95,14,0,0,0,1,-2,-1,-1,-4
32,131,79,40,7,127.0,1.0,95,14,10,6,10,7,-2,-1,1,-3
33,139,84,43,0,134.0,1.0,105,15,15,9,3,3,1,1,1,-2
34,143,76,38,4,138.0,1.0,95,15,7,4,7,5,-3,-2,-1,-3
35,148,81,41,9,142.0,1.0,105,16,12,7,0,1,2,1,1,-2
36,152,84,43,0,146.0,1.0,95,16,15,9,3,3,1,1,1,-1
37,156,84,43,0,150.0,1.0,105,17,15,9,3,3,1,1,0,-1
38,160,81,41,9,154.0,3.0,95,17,12,7,0,1,2,1,-1,-2
39,162,81,41,9,158.0,1.0,105,18,12,7,0,1,-2,-1,0,-2
40,166,76,38,4,162.0,1.0,95,18,7,4,7,5,2,1,-1,-3
41,170,76,38,4,166.0,1.0,105,19,7,4,7,5,4,2,0,-3
42,175,72,36,0,170.0,1.0,95,19,3,2,3,3,1,1,-1,-4
43,179,76,38,4,174.0,1.0,105,20,7,4,7,5,4,2,1,-3
44,183,74,37,2,178.0,1.0,95,20,5,3,5,4,-2,-1,-1,-4
45,188,72,36,0,182.0,1.0,105,21,3,2,3,3,-2,-1,-1,-5
46,192,69,34,9,186.0,3.0,95,21,0,0,0,1,-2,-1,-1,-6
47,194,79,40,7,190.0,1.0,95,21,10,6,10,7,-2,-1,1,-5
48,202,84,43,0,197.0,1.0,105,22,15,9,3,3,1,1,1,-4
49,206,76,38,4,201.0,1.0,95,22,7,4,7,5,-3,-2,-1,-5
50,211,81,41,9,205.0,1.0,105,23,12,7,0,1,2,1,1,-4
51,215,84,43,0,209.0,1.0,95,23,15,9,3,3,1,1,1,-3
52,219,84,43,0,213.0,1.0,105,24,15,9,3,3,1,1,0,-3
53,223,81,41,9,217.0,3.0,95,24,12,7,0,1,2,1,-1,-4
54,225,81,41,9,221.0,1.0,105,25,12,7,0,1,-2,-1,0,-4
55,229,76,38,4,225.0,1.0,95,25,7,4,7,5,2,1,-1,-5
56,233,76,38,4,229.0,1.0,105,26,7,4,7,5,4,2,0,-5
57,238,72,36,0,233.0,1.0,95,26,3,2,3,3,1,1,-1,-6
58,242,76,38,4,237.0,1.0,105,27,7,4,7,5,4,2,1,-5
59,246,74,37,2,241.0,1.0,95,27,5,3,5,4,-2,-1,-1,-6
60,251,72,36,0,245.0,1.0,105,28,3,2,3,3,-2,-1,-1,-7
61,255,69,34,9,249.0,3.0,95,28,0,0,0,1,-2,-1,-1,-8
62,257,71,35,11,253.0,1.0,95,28,2,1,2,2,2,1,1,-7
63,261,69,34,9,257.0,1.0,95,28,0,0,0,1,-7,-4,-1,-8
64,264,76,38,4,260.0,1.0,105,29,7,4,7,5,7,4,1,-7
65,268,76,38,4,264.0,1.0,95,29,7,4,7,5,2,1,0,-7
66,272,69,34,9,268.0,1.0,105,30,0,0,0,1,-2,-1,-1,-8
67,276,76,38,4,272.0,1.0,95,30,7,4,7,5,2,1,1,-7
68,280,74,37,2,276.0,1.0,105,31,5,3,5,4,-2,-1,-1,-8
69,284,74,37,2,280.0,1.0,95,31,5,3,5,4,3,2,0,-8
70,288,69,34,9,284.0,1.0,105,32,0,0,0,1,2,1,-1,-9
71,292,76,38,4,288.0,1.0,95,32,7,4,7,5,2,1,1,-8
72,296,76,38,4,292.0,1.0,105,33,7,4,7,5,7,4,0,-8
73,300,76,38,4,296.0,1.0,95,33,7,4,7,5,2,1,0,-8
74,304,76,38,4,300.0,2.0,105,34,7,4,7,5,2,1,0,-8
75,307,79,40,7,304.0,1.0,95,34,10,6,10,7,3,2,1,-7
76,311,74,37,2,308.0,1.0,105,35,5,3,5,4,-2,-1,-1,-8
77,315,69,34,9,312.0,4.0,95,35,0,0,0,1,2,1,-1,-9
78,316,69,34,9,316.0,1.0,105,36,0,0,0,1,0,0,0,-9
79,320,76,38,4,320.0,1.0,95,36,7,4,7,5,2,1,1,-8
80,324,76,38,4,324.0,1.0,105,37,7,4,7,5,7,4,0,-8
81,328,76,38,4,328.0,1.0,95,37,7,4,7,5,2,1,0,-8
82,332,69,34,9,332.0,1.0,105,38,0,0,0,1,-2,-1,-1,-9
83,336,76,38,4,336.0,1.0,95,38,7,4,7,5,2,1,1,-8
84,340,74,37,2,340.0,1.0,105,39,5,3,5,4,-2,-1,-1,-9
85,344,74,37,2,344.0,1.0,95,39,5,3,5,4,3,2,0,-9
86,348,69,34,9,348.0,1.0,105,40,0,0,0,1,2,1,-1,-10
87,352,76,38,4,352.0,1.0,95,40,7,4,7,5,2,1,1,-9
88,356,76,38,4,356.0,1.0,105,41,7,4,7,5,7,4,0,-9
89,360,76,38,4,360.0,1.0,95,41,7,4,7,5,2,1,0,-9
90,364,76,38,4,364.0,2.0,105,42,7,4,7,5,2,1,0,-9
91,367,79,40,7,368.0,1.0,95,42,10,6,10,7,3,2,1,-8
92,371,74,37,2,372.0,1.0,105,43,5,3,5,4,-2,-1,-1,-9
93,375,69,34,9,376.0,1.0,95,43,0,0,0,1,2,1,-1,-10
94,379,76,38,4,380.0,2.0,105,44,7,4,7,5,2,1,1,-9
95,382,81,41,9,384.0,1.0,95,44,12,7,0,1,0,0,1,-8
96,386,79,40,7,388.0,1.0,105,45,10,6,10,7,-2,-1,-1,-9
97,390,74,37,2,392.0,1.0,95,45,5,3,5,4,-2,-1,-1,-10
98,394,67,33,7,396.0,2.0,105,46,-2,-1,10,7,-4,-2,-1,-11
99,398,74,37,2,400.0,1.0,95,46,5,3,5,4,2,1,1,-10
100,402,79,40,7,404.0,1.0,105,47,10,6,10,7,7,4,1,-9
101,406,81,41,9,408.0,1.0,95,47,12,7,0,1,2,1,1,-8
102,410,76,38,4,412.0,2.0,105,48,7,4,7,5,2,1,-1,-9
103,413,79,40,7,416.0,1.0,95,48,10,6,10,7,3,2,1,-8
104,417,81,41,9,420.0,1.0,105,49,12,7,0,1,5,3,1,-7
105,421,76,38,4,424.0,1.0,95,49,7,4,7,5,0,0,-1,-8
106,425,76,38,4,428.0,2.0,105,50,7,4,7,5,2,1,0,-8
107,428,79,40,7,432.0,1.0,95,50,10,6,10,7,3,2,1,-7
108,432,74,37,2,436.0,1.0,105,51,5,3,5,4,-2,-1,-1,-8
109,436,69,34,9,440.0,1.0,95,51,0,0,0,1,2,1,-1,-9
110,440,76,38,4,444.0,2.0,105,52,7,4,7,5,2,1,1,-8
111,443,81,41,9,448.0,1.0,95,52,12,7,0,1,0,0,1,-7
112,447,79,40,7,452.0,1.0,105,53,10,6,10,7,-2,-1,-1,-8
113,451,74,37,2,456.0,1.0,95,53,5,3,5,4,-2,-1,-1,-9
114,455,67,33,7,460.0,2.0,105,54,-2,-1,10,7,-4,-2,-1,-10
115,459,74,37,2,464.0,1.0,95,54,5,3,5,4,2,1,1,-9
116,463,79,40,7,468.0,1.0,105,55,10,6,10,7,7,4,1,-8
117,467,81,41,9,472.0,1.0,95,55,12,7,0,1,2,1,1,-7
118,471,76,38,4,476.0,2.0,105,56,7,4,7,5,2,1,-1,-8
119,474,79,40,7,480.0,1.0,95,56,10,6,10,7,3,2,1,-7
120,478,81,41,9,484.0,1.0,105,57,12,7,0,1,5,3,1,-6
121,482,76,38,4,488.0,1.0,95,57,7,4,7,5,0,0,-1,-7
122,486,76,38,4,492.0,2.0,105,58,7,4,7,5,2,1,0,-7
123,489,79,40,7,496.0,1.0,95,58,10,6,10,7,3,2,1,-6
124,493,74,37,2,500.0,1.0,105,59,5,3,5,4,-2,-1,-1,-7
125,497,69,34,9,504.0,3.0,95,59,0,0,0,1,2,1,-1,-8
