,index,midi_note_num,diatonic_note_num,chromatic_pitch_class,onset,duration,velocity,bar_count,relative_chromatic_pitch,relative_diatonic_pitch,chromatic_scale_degree,diatonic_scale_degree,chromatic_interval,diatonic_interval,parsons_code,parsons_cumsum
0,2,78,39,6,3.0,2.0,105,0,16,9,4,3,0,0,0,0
1,4,69,34,9,6.0,1.5,95,0,7,4,7,5,0,0,-1,-1
2,7,71,35,11,9.0,0.5,105,1,9,5,9,6,2,1,1,0
3,10,69,34,9,12.0,1.0,95,1,7,4,7,5,-2,-1,-1,-1
4,13,79,40,7,15.0,2.0,105,2,17,10,5,4,1,1,1,0
5,15,78,39,6,18.0,2.0,95,2,16,9,4,3,2,1,-1,-1
6,17,76,38,4,21.0,1.0,105,3,14,8,2,2,2,1,-1,-2
7,20,73,36,1,24.0,1.0,95,3,11,6,11,7,-1,-1,-1,-3
8,23,78,39,6,27.0,2.0,105,4,16,9,4,3,9,5,1,-2
9,25,69,34,9,30.0,1.5,95,4,7,4,7,5,0,0,-1,-3
10,28,71,35,11,33.0,0.5,105,5,9,5,9,6,2,1,1,-2
11,31,79,40,7,36.0,3.0,95,5,17,10,5,4,8,5,1,-1
12,32,71,35,11,39.0,1.0,105,6,9,5,9,6,-8,-5,-1,-2
13,35,73,36,1,42.0,1.5,95,6,11,6,11,7,-1,-1,1,-1
14,38,74,37,2,45.0,3.0,105,7,12,7,0,1,1,1,1,0
15,39,74,37,2,48.0,2.0,95,7,12,7,0,1,0,0,0,0
16,41,78,39,6,51.0,2.0,105,8,16,9,4,3,2,1,1,1
17,43,69,34,9,54.0,1.5,95,8,7,4,7,5,0,0,-1,0
18,46,71,35,11,57.0,0.5,105,9,9,5,9,6,2,1,1,1
19,49,69,34,9,60.0,1.0,95,9,7,4,7,5,-2,-1,-1,0
20,52,79,40,7,63.0,2.0,105,10,17,10,5,4,1,1,1,1
21,54,78,39,6,66.0,2.0,95,10,16,9,4,3,2,1,-1,0
22,56,76,38,4,69.0,1.0,105,11,14,8,2,2,2,1,-1,-1
23,59,73,36,1,72.0,1.0,95,11,11,6,11,7,-1,-1,-1,-2
24,62,78,39,6,75.0,2.0,105,12,16,9,4,3,9,5,1,-1
25,64,69,34,9,78.0,1.5,95,12,7,4,7,5,0,0,-1,-2
26,67,71,35,11,81.0,0.5,105,13,9,5,9,6,2,1,1,-1
27,70,79,40,7,84.0,3.0,95,13,17,10,5,4,8,5,1,0
28,71,71,35,11,87.0,1.0,105,14,9,5,9,6,-8,-5,-1,-1
29,74,73,36,1,90.0,1.5,95,14,11,6,11,7,-1,-1,1,0
30,77,74,37,2,93.0,3.0,105,15,12,7,0,1,1,1,1,1
31,78,74,37,2,96.0,1.0,95,15,12,7,0,1,0,0,0,1
32,81,81,41,9,99.0,2.0,105,16,19,11,7,5,2,1,1,2
33,83,79,40,7,102.0,2.0,95,16,17,10,5,4,1,1,-1,1
34,85,78,39,6,105.0,0.5,105,17,16,9,4,3,2,1,-1,0
35,89,78,39,6,108.0,1.0,95,17,16,9,4,3,-1,-1,0,0
36,92,79,40,7,111.0,2.0,105,18,17,10,5,4,5,3,1,1
37,94,78,39,6,114.0,2.0,95,18,16,9,4,3,2,1,-1,0
38,96,76,38,4,117.0,1.0,105,19,14,8,2,2,2,1,-1,-1
39,100,73,36,1,120.0,1.0,95,19,11,6,11,7,-1,-1,-1,-2
40,103,81,41,9,123.0,1.0,105,20,19,11,7,5,12,7,1,-1
41,106,79,40,7,126.0,1.0,95,20,17,10,5,4,1,1,-1,-2
42,109,78,39,6,129.0,1.0,105,21,16,9,4,3,2,1,-1,-3
43,112,78,39,6,132.0,1.0,95,21,16,9,4,3,-1,-1,0,-3
44,115,71,35,11,135.0,1.0,105,22,9,5,9,6,-3,-2,-1,-4
45,118,73,36,1,138.0,1.0,95,22,11,6,11,7,-1,-1,1,-3
46,121,74,37,2,141.0,3.0,105,23,12,7,0,1,1,1,1,-2
47,122,74,37,2,144.0,1.0,95,23,12,7,0,1,0,0,0,-2
48,125,81,41,9,147.0,2.0,105,24,19,11,7,5,2,1,1,-1
49,127,79,40,7,150.0,2.0,95,24,17,10,5,4,1,1,-1,-2
50,129,78,39,6,153.0,0.5,105,25,16,9,4,3,2,1,-1,-3
51,133,78,39,6,156.0,1.0,95,25,16,9,4,3,-1,-1,0,-3
52,136,79,40,7,159.0,2.0,105,26,17,10,5,4,5,3,1,-2
53,138,78,39,6,162.0,2.0,95,26,16,9,4,3,2,1,-1,-3
54,140,76,38,4,165.0,1.0,105,27,14,8,2,2,2,1,-1,-4
55,144,73,36,1,168.0,1.0,95,27,11,6,11,7,-1,-1,-1,-5
56,147,78,39,6,171.0,1.0,105,28,16,9,4,3,9,5,1,-4
57,150,69,34,9,174.0,1.5,95,28,7,4,7,5,0,0,-1,-5
58,153,71,35,11,177.0,0.5,105,29,9,5,9,6,2,1,1,-4
59,156,79,40,7,180.0,3.0,95,29,17,10,5,4,8,5,1,-3
60,157,71,35,11,183.0,1.0,105,30,9,5,9,6,-8,-5,-1,-4
61,160,73,36,1,186.0,1.5,95,30,11,6,11,7,-1,-1,1,-3
62,163,74,37,2,189.0,3.0,105,31,12,7,0,1,1,1,1,-2
63,164,74,37,2,192.0,2.0,95,31,12,7,0,1,0,0,0,-2
64,166,78,39,6,195.0,1.0,105,32,16,9,4,3,2,1,1,-1
65,169,69,34,9,198.0,1.5,95,32,7,4,7,5,-9,-5,-1,-2
66,172,71,35,11,201.0,0.5,105,33,9,5,9,6,2,1,1,-1
67,175,71,35,11,204.0,1.0,95,33,9,5,9,6,-2,-1,0,-1
68,178,69,34,9,207.0,1.5,105,34,7,4,7,5,-2,-1,-1,-2
69,181,78,39,6,210.0,1.0,95,34,16,9,4,3,9,5,1,-1
70,184,73,36,1,213.0,1.0,105,35,11,6,11,7,-1,-1,-1,-2
71,188,73,36,1,216.0,1.0,95,35,11,6,11,7,-1,-1,0,-2
72,191,78,39,6,219.0,1.0,105,36,16,9,4,3,9,5,1,-1
73,194,69,34,9,222.0,1.5,95,36,7,4,7,5,-9,-5,-1,-2
74,197,71,35,11,225.0,0.5,105,37,9,5,9,6,2,1,1,-1
75,200,79,40,7,228.0,3.0,95,37,17,10,5,4,8,5,1,0
76,201,71,35,11,231.0,1.0,105,38,9,5,9,6,-8,-5,-1,-1
77,204,73,36,1,234.0,1.5,95,38,11,6,11,7,-1,-1,1,0
78,207,74,37,2,237.0,3.0,105,39,12,7,0,1,1,1,1,1
79,208,74,37,2,240.0,2.0,95,39,12,7,0,1,0,0,0,1
80,210,78,39,6,243.0,1.0,105,40,16,9,4,3,2,1,1,2
81,213,69,34,9,246.0,1.5,95,40,7,4,7,5,-9,-5,-1,1
82,216,71,35,11,249.0,0.5,105,41,9,5,9,6,2,1,1,2
83,219,71,35,11,252.0,1.0,95,41,9,5,9,6,-2,-1,0,2
84,222,69,34,9,255.0,1.5,105,42,7,4,7,5,-2,-1,-1,1
85,225,78,39,6,258.0,1.0,95,42,16,9,4,3,9,5,1,2
86,228,73,36,1,261.0,1.0,105,43,11,6,11,7,-1,-1,-1,1
87,232,73,36,1,264.0,1.0,95,43,11,6,11,7,-1,-1,0,1
88,235,78,39,6,267.0,1.0,105,44,16,9,4,3,9,5,1,2
89,238,69,34,9,270.0,1.5,95,44,7,4,7,5,-9,-5,-1,1
90,241,71,35,11,273.0,0.5,105,45,9,5,9,6,2,1,1,2
91,244,79,40,7,276.0,3.0,95,45,17,10,5,4,8,5,1,3
92,245,71,35,11,279.0,1.0,105,46,9,5,9,6,-8,-5,-1,2
93,248,73,36,1,282.0,1.5,95,46,11,6,11,7,-1,-1,1,3
94,251,74,37,2,285.0,3.0,105,47,12,7,0,1,1,1,1,4
95,252,74,37,2,288.0,1.0,95,47,12,7,0,1,0,0,0,4
96,255,81,41,9,291.0,1.0,105,48,19,11,7,5,2,1,1,5
97,258,78,39,6,294.0,1.0,95,48,16,9,4,3,-3,-2,-1,4
98,261,78,39,6,297.0,0.5,105,49,16,9,4,3,4,2,0,4
99,264,78,39,6,300.0,1.0,95,49,16,9,4,3,-1,-1,0,4
100,267,79,40,7,303.0,1.0,105,50,17,10,5,4,5,3,1,5
101,270,78,39,6,306.0,1.0,95,50,16,9,4,3,-1,-1,-1,4
102,273,76,38,4,309.0,1.0,105,51,14,8,2,2,2,1,-1,3
103,276,73,36,1,312.0,1.0,95,51,11,6,11,7,-1,-1,-1,2
104,279,81,41,9,315.0,1.0,105,52,19,11,7,5,12,7,1,3
105,282,78,39,6,318.0,1.0,95,52,16,9,4,3,-3,-2,-1,2
106,285,78,39,6,321.0,0.5,105,53,16,9,4,3,4,2,0,2
107,288,78,39,6,324.0,1.0,95,53,16,9,4,3,-1,-1,0,2
108,291,71,35,11,327.0,1.0,105,54,9,5,9,6,-3,-2,-1,1
109,294,73,36,1,330.0,1.5,95,54,11,6,11,7,-1,-1,1,2
110,297,74,37,2,333.0,3.0,105,55,12,7,0,1,1,1,1,3
111,298,74,37,2,336.0,1.0,95,55,12,7,0,1,0,0,0,3
112,301,81,41,9,339.0,1.0,105,56,19,11,7,5,2,1,1,4
113,304,78,39,6,342.0,1.0,95,56,16,9,4,3,-3,-2,-1,3
114,307,78,39,6,345.0,0.5,105,57,16,9,4,3,4,2,0,3
115,310,78,39,6,348.0,1.0,95,57,16,9,4,3,-1,-1,0,3
116,313,79,40,7,351.0,1.0,105,58,17,10,5,4,5,3,1,4
117,316,78,39,6,354.0,1.0,95,58,16,9,4,3,-1,-1,-1,3
118,319,76,38,4,357.0,1.0,105,59,14,8,2,2,2,1,-1,2
119,322,73,36,1,360.0,1.0,95,59,11,6,11,7,-1,-1,-1,1
120,325,78,39,6,363.0,2.0,105,60,16,9,4,3,9,5,1,2
121,327,69,34,9,366.0,1.5,95,60,7,4,7,5,0,0,-1,1
122,330,71,35,11,369.0,0.5,105,61,9,5,9,6,2,1,1,2
123,333,79,40,7,372.0,3.0,95,61,17,10,5,4,8,5,1,3
124,334,71,35,11,375.0,1.0,105,62,9,5,9,6,-8,-5,-1,2
125,337,73,36,1,378.0,1.5,95,62,11,6,11,7,-1,-1,1,3
126,340,74,37,2,381.0,3.0,105,63,12,7,0,1,1,1,1,4
