,index,midi_note_num,diatonic_note_num,chromatic_pitch_class,onset,duration,velocity,bar_count,relative_chromatic_pitch,relative_diatonic_pitch,chromatic_scale_degree,diatonic_scale_degree,chromatic_interval,diatonic_interval,parsons_code,parsons_cumsum
0,0,76,38,4,0.0,3.0,105,0,14,8,2,2,0,0,0,0
1,2,69,34,9,4.0,2.0,95,0,7,4,7,5,-4,-2,-1,-1
2,5,76,38,4,8.0,1.0,105,1,14,8,2,2,3,2,1,0
3,9,69,34,9,12.0,2.0,95,1,7,4,7,5,-4,-2,-1,-1
4,12,76,38,4,16.0,2.0,105,2,14,8,2,2,-2,-1,1,0
5,14,73,36,1,20.0,2.0,95,2,11,6,11,7,-1,-1,-1,-1
6,16,71,35,11,24.0,2.0,105,3,9,5,9,6,0,0,-1,-2
7,18,69,34,9,28.0,4.0,95,3,7,4,7,5,0,0,-1,-3
8,19,76,38,4,32.0,3.0,105,4,14,8,2,2,7,4,1,-2
9,21,69,34,9,36.0,2.0,95,4,7,4,7,5,-4,-2,-1,-3
10,24,76,38,4,40.0,1.0,105,5,14,8,2,2,3,2,1,-2
11,28,69,34,9,44.0,2.0,95,5,7,4,7,5,-4,-2,-1,-3
12,31,76,38,4,48.0,2.0,105,6,14,8,2,2,-2,-1,1,-2
13,33,73,36,1,52.0,2.0,95,6,11,6,11,7,-1,-1,-1,-3
14,35,71,35,11,56.0,2.0,105,7,9,5,9,6,0,0,-1,-4
15,37,69,34,9,60.0,4.0,95,7,7,4,7,5,0,0,-1,-5
16,38,69,34,9,64.0,3.0,105,8,7,4,7,5,0,0,0,-5
17,40,71,35,11,68.0,2.0,95,8,9,5,9,6,2,1,1,-4
18,43,66,32,6,72.0,1.0,105,9,4,2,4,3,-1,-1,-1,-5
19,47,81,41,9,76.0,3.0,95,9,19,11,7,5,3,2,1,-4
20,49,79,40,7,80.0,3.0,105,10,17,10,5,4,1,1,-1,-5
21,51,73,36,1,84.0,1.0,95,10,11,6,11,7,-3,-2,-1,-6
22,55,74,37,2,88.0,1.0,105,11,12,7,0,1,1,1,1,-5
23,59,83,42,11,92.0,1.0,95,11,21,12,9,6,5,3,1,-4
24,63,69,34,9,96.0,3.0,105,12,7,4,7,5,-5,-3,-1,-5
25,65,71,35,11,100.0,2.0,95,12,9,5,9,6,2,1,1,-4
26,68,66,32,6,104.0,1.0,105,13,4,2,4,3,-1,-1,-1,-5
27,72,81,41,9,108.0,3.0,95,13,19,11,7,5,3,2,1,-4
28,74,79,40,7,112.0,3.0,105,14,17,10,5,4,1,1,-1,-5
29,76,73,36,1,116.0,1.0,95,14,11,6,11,7,-3,-2,-1,-6
30,80,74,37,2,120.0,1.0,105,15,12,7,0,1,1,1,1,-5
31,84,74,37,2,124.0,4.0,95,15,12,7,0,1,1,1,0,-5
32,85,69,34,9,128.0,3.0,105,16,7,4,7,5,-5,-3,-1,-6
33,87,71,35,11,132.0,2.0,95,16,9,5,9,6,2,1,1,-5
34,90,66,32,6,136.0,1.0,105,17,4,2,4,3,-1,-1,-1,-6
35,94,81,41,9,140.0,3.0,95,17,19,11,7,5,3,2,1,-5
36,96,79,40,7,144.0,3.0,105,18,17,10,5,4,1,1,-1,-6
37,98,73,36,1,148.0,1.0,95,18,11,6,11,7,-3,-2,-1,-7
38,102,74,37,2,152.0,1.0,105,19,12,7,0,1,1,1,1,-6
39,106,83,42,11,156.0,1.0,95,19,21,12,9,6,5,3,1,-5
40,110,69,34,9,160.0,3.0,105,20,7,4,7,5,-5,-3,-1,-6
41,112,71,35,11,164.0,2.0,95,20,9,5,9,6,2,1,1,-5
42,115,66,32,6,168.0,1.0,105,21,4,2,4,3,-1,-1,-1,-6
43,119,81,41,9,172.0,3.0,95,21,19,11,7,5,3,2,1,-5
44,121,79,40,7,176.0,3.0,105,22,17,10,5,4,1,1,-1,-6
45,123,73,36,1,180.0,1.0,95,22,11,6,11,7,-3,-2,-1,-7
46,127,74,37,2,184.0,1.0,105,23,12,7,0,1,1,1,1,-6
47,131,74,37,2,188.0,4.0,95,23,12,7,0,1,1,1,0,-6
48,132,74,37,2,192.0,2.0,105,24,12,7,0,1,0,0,0,-6
49,134,71,35,11,196.0,2.0,95,24,9,5,9,6,-2,-1,-1,-7
50,136,66,32,6,200.0,3.0,105,25,4,2,4,3,-3,-2,-1,-8
51,138,66,32,6,204.0,2.0,95,25,4,2,4,3,0,0,0,-8
52,141,61,29,1,208.0,1.0,105,26,-1,-1,11,7,-1,-1,-1,-9
53,145,64,31,4,212.0,1.0,95,26,2,1,2,2,3,2,1,-8
54,149,62,30,2,216.0,1.0,105,27,0,0,0,1,-2,-1,-1,-9
55,153,66,32,6,220.0,2.0,95,27,4,2,4,3,4,2,1,-8
56,156,74,37,2,224.0,2.0,105,28,12,7,0,1,1,1,1,-7
57,158,71,35,11,228.0,2.0,95,28,9,5,9,6,-2,-1,-1,-8
58,160,66,32,6,232.0,3.0,105,29,4,2,4,3,-3,-2,-1,-9
59,162,66,32,6,236.0,2.0,95,29,4,2,4,3,0,0,0,-9
60,165,61,29,1,240.0,1.0,105,30,-1,-1,11,7,-1,-1,-1,-10
61,169,64,31,4,244.0,1.0,95,30,2,1,2,2,3,2,1,-9
62,173,62,30,2,248.0,1.0,105,31,0,0,0,1,-2,-1,-1,-10
63,177,74,37,2,252.0,4.0,95,31,12,7,0,1,5,3,1,-9
64,178,74,37,2,256.0,2.0,105,32,12,7,0,1,0,0,0,-9
65,180,71,35,11,260.0,2.0,95,32,9,5,9,6,-2,-1,-1,-10
66,182,66,32,6,264.0,3.0,105,33,4,2,4,3,-3,-2,-1,-11
67,184,66,32,6,268.0,2.0,95,33,4,2,4,3,0,0,0,-11
68,187,61,29,1,272.0,1.0,105,34,-1,-1,11,7,-1,-1,-1,-12
69,191,64,31,4,276.0,1.0,95,34,2,1,2,2,3,2,1,-11
70,195,62,30,2,280.0,1.0,105,35,0,0,0,1,-2,-1,-1,-12
71,199,66,32,6,284.0,2.0,95,35,4,2,4,3,4,2,1,-11
72,202,74,37,2,288.0,2.0,105,36,12,7,0,1,1,1,1,-10
73,204,71,35,11,292.0,2.0,95,36,9,5,9,6,-2,-1,-1,-11
74,206,66,32,6,296.0,3.0,105,37,4,2,4,3,-3,-2,-1,-12
75,208,66,32,6,300.0,2.0,95,37,4,2,4,3,0,0,0,-12
76,211,61,29,1,304.0,1.0,105,38,-1,-1,11,7,-1,-1,-1,-13
77,215,64,31,4,308.0,1.0,95,38,2,1,2,2,3,2,1,-12
78,219,62,30,2,312.0,1.0,105,39,0,0,0,1,-2,-1,-1,-13
79,223,74,37,2,316.0,4.0,95,39,12,7,0,1,5,3,1,-12
