,index,midi_note_num,diatonic_note_num,chromatic_pitch_class,onset,duration,velocity,bar_count,relative_chromatic_pitch,relative_diatonic_pitch,chromatic_scale_degree,diatonic_scale_degree,chromatic_interval,diatonic_interval,parsons_code,parsons_cumsum
0,0,62,30,2,0.0,1.0,105,0,-5,-3,7,5,0,0,0,0
1,4,71,35,11,4.0,3.0,95,0,4,2,4,3,2,1,1,1
2,6,76,38,4,8.0,1.0,105,1,9,5,9,6,2,1,1,2
3,9,81,41,9,12.0,1.0,95,1,14,8,2,2,2,1,1,3
4,13,79,40,7,16.0,1.0,105,2,12,7,0,1,1,1,-1,2
5,17,79,40,7,20.0,1.0,95,2,12,7,0,1,3,2,0,2
6,21,69,34,9,24.0,1.0,105,3,2,1,2,2,-2,-1,-1,1
7,25,67,33,7,28.0,1.0,95,3,0,0,0,1,-2,-1,-1,0
8,28,62,30,2,32.0,1.0,105,4,-5,-3,7,5,-2,-1,-1,-1
9,32,71,35,11,36.0,1.0,95,4,4,2,4,3,2,1,1,0
10,36,76,38,4,40.0,1.0,105,5,9,5,9,6,2,1,1,1
11,39,81,41,9,44.0,1.0,95,5,14,8,2,2,2,1,1,2
12,43,79,40,7,48.0,1.0,105,6,12,7,0,1,1,1,-1,1
13,47,79,40,7,52.0,1.0,95,6,12,7,0,1,3,2,0,1
14,51,69,34,9,56.0,1.0,105,7,2,1,2,2,-2,-1,-1,0
15,55,67,33,7,60.0,2.0,95,7,0,0,0,1,-2,-1,-1,-1
16,58,62,30,2,64.0,1.0,105,8,-5,-3,7,5,-2,-1,-1,-2
17,62,71,35,11,68.0,3.0,95,8,4,2,4,3,2,1,1,-1
18,64,76,38,4,72.0,1.0,105,9,9,5,9,6,2,1,1,0
19,67,81,41,9,76.0,1.0,95,9,14,8,2,2,2,1,1,1
20,71,79,40,7,80.0,1.0,105,10,12,7,0,1,1,1,-1,0
21,75,79,40,7,84.0,1.0,95,10,12,7,0,1,3,2,0,0
22,79,69,34,9,88.0,1.0,105,11,2,1,2,2,-2,-1,-1,-1
23,83,67,33,7,92.0,1.0,95,11,0,0,0,1,-2,-1,-1,-2
24,86,62,30,2,96.0,1.0,105,12,-5,-3,7,5,-2,-1,-1,-3
25,90,71,35,11,100.0,1.0,95,12,4,2,4,3,2,1,1,-2
26,94,76,38,4,104.0,1.0,105,13,9,5,9,6,2,1,1,-1
27,97,81,41,9,108.0,1.0,95,13,14,8,2,2,2,1,1,0
28,101,79,40,7,112.0,1.0,105,14,12,7,0,1,1,1,-1,-1
29,105,79,40,7,116.0,1.0,95,14,12,7,0,1,3,2,0,-1
30,109,69,34,9,120.0,1.0,105,15,2,1,2,2,-2,-1,-1,-2
31,113,67,33,7,124.0,3.0,95,15,0,0,0,1,-2,-1,-1,-3
32,115,74,37,2,128.0,1.0,105,16,7,4,7,5,3,2,1,-2
33,118,81,41,9,132.0,1.0,95,16,14,8,2,2,2,1,1,-1
34,121,83,42,11,136.0,1.0,105,17,16,9,4,3,4,2,1,0
35,125,76,38,4,140.0,1.0,95,17,9,5,9,6,-3,-2,-1,-1
36,129,76,38,4,144.0,1.0,105,18,9,5,9,6,2,1,0,-1
37,133,67,33,7,148.0,1.0,95,18,0,0,0,1,-2,-1,-1,-2
38,137,79,40,7,152.0,1.0,105,19,12,7,0,1,5,3,1,-1
39,141,69,34,9,156.0,1.0,95,19,2,1,2,2,-2,-1,-1,-2
40,145,62,30,2,160.0,1.0,105,20,-5,-3,7,5,-5,-3,-1,-3
41,149,71,35,11,164.0,1.0,95,20,4,2,4,3,2,1,1,-2
42,153,76,38,4,168.0,1.0,105,21,9,5,9,6,2,1,1,-1
43,156,81,41,9,172.0,1.0,95,21,14,8,2,2,2,1,1,0
44,160,79,40,7,176.0,1.0,105,22,12,7,0,1,1,1,-1,-1
45,164,79,40,7,180.0,1.0,95,22,12,7,0,1,3,2,0,-1
46,168,69,34,9,184.0,1.0,105,23,2,1,2,2,-2,-1,-1,-2
47,172,67,33,7,188.0,3.0,95,23,0,0,0,1,-2,-1,-1,-3
48,174,74,37,2,192.0,1.0,105,24,7,4,7,5,3,2,1,-2
49,177,81,41,9,196.0,1.0,95,24,14,8,2,2,2,1,1,-1
50,180,83,42,11,200.0,1.0,105,25,16,9,4,3,4,2,1,0
51,184,76,38,4,204.0,1.0,95,25,9,5,9,6,-3,-2,-1,-1
52,188,76,38,4,208.0,1.0,105,26,9,5,9,6,2,1,0,-1
53,192,67,33,7,212.0,1.0,95,26,0,0,0,1,-2,-1,-1,-2
54,196,79,40,7,216.0,1.0,105,27,12,7,0,1,5,3,1,-1
55,200,69,34,9,220.0,1.0,95,27,2,1,2,2,-2,-1,-1,-2
56,204,62,30,2,224.0,1.0,105,28,-5,-3,7,5,-5,-3,-1,-3
57,208,71,35,11,228.0,1.0,95,28,4,2,4,3,2,1,1,-2
58,212,76,38,4,232.0,1.0,105,29,9,5,9,6,2,1,1,-1
59,215,81,41,9,236.0,1.0,95,29,14,8,2,2,2,1,1,0
60,219,79,40,7,240.0,1.0,105,30,12,7,0,1,1,1,-1,-1
61,223,79,40,7,244.0,1.0,95,30,12,7,0,1,3,2,0,-1
62,227,69,34,9,248.0,1.0,105,31,2,1,2,2,-2,-1,-1,-2
63,231,67,33,7,252.0,2.0,95,31,0,0,0,1,-2,-1,-1,-3
64,234,62,30,2,256.0,1.0,105,32,-5,-3,7,5,-2,-1,-1,-4
65,238,71,35,11,260.0,3.0,95,32,4,2,4,3,2,1,1,-3
66,240,76,38,4,264.0,1.0,105,33,9,5,9,6,2,1,1,-2
67,243,81,41,9,268.0,1.0,95,33,14,8,2,2,2,1,1,-1
68,247,79,40,7,272.0,1.0,105,34,12,7,0,1,1,1,-1,-2
69,251,67,33,7,276.0,1.0,95,34,0,0,0,1,-4,-2,-1,-3
70,255,76,38,4,280.0,1.0,105,35,9,5,9,6,2,1,1,-2
71,259,69,34,9,284.0,1.0,95,35,2,1,2,2,-2,-1,-1,-3
