,index,midi_note_num,diatonic_note_num,chromatic_pitch_class,onset,duration,velocity,bar_count,relative_chromatic_pitch,relative_diatonic_pitch,chromatic_scale_degree,diatonic_scale_degree,chromatic_interval,diatonic_interval,parsons_code,parsons_cumsum
0,2,69,34,9,2.0,1.0,105,0,7,4,7,5,0,0,0,0
1,6,69,34,9,6.0,1.0,95,0,7,4,7,5,-2,-1,0,0
2,10,79,40,7,10.0,2.0,105,1,17,10,5,4,1,1,1,1
3,13,74,37,2,14.0,1.0,95,1,12,7,0,1,-2,-1,-1,0
4,17,69,34,9,18.0,1.0,105,2,7,4,7,5,3,2,-1,-1
5,21,78,39,6,22.0,1.0,95,2,16,9,4,3,2,1,1,0
6,25,76,38,4,26.0,2.0,105,3,14,8,2,2,-2,-1,-1,-1
7,28,69,34,9,30.0,2.0,95,3,7,4,7,5,-9,-5,-1,-2
8,31,69,34,9,34.0,1.0,105,4,7,4,7,5,-2,-1,0,-2
9,35,69,34,9,38.0,1.0,95,4,7,4,7,5,-2,-1,0,-2
10,39,79,40,7,42.0,2.0,105,5,17,10,5,4,1,1,1,-1
11,42,74,37,2,46.0,1.0,95,5,12,7,0,1,-2,-1,-1,-2
12,46,69,34,9,50.0,1.0,105,6,7,4,7,5,3,2,-1,-3
13,50,64,31,4,54.0,1.0,95,6,2,1,2,2,-2,-1,-1,-4
14,54,62,30,2,58.0,2.0,105,7,0,0,0,1,-4,-2,-1,-5
15,57,66,32,6,62.0,1.0,95,7,4,2,4,3,-1,-1,1,-4
16,61,69,34,9,66.0,1.0,105,8,7,4,7,5,-2,-1,1,-3
17,65,69,34,9,70.0,1.0,95,8,7,4,7,5,-2,-1,0,-3
18,69,79,40,7,74.0,2.0,105,9,17,10,5,4,1,1,1,-2
19,72,74,37,2,78.0,1.0,95,9,12,7,0,1,-2,-1,-1,-3
20,76,69,34,9,82.0,1.0,105,10,7,4,7,5,3,2,-1,-4
21,80,78,39,6,86.0,1.0,95,10,16,9,4,3,2,1,1,-3
22,84,76,38,4,90.0,2.0,105,11,14,8,2,2,-2,-1,-1,-4
23,87,69,34,9,94.0,2.0,95,11,7,4,7,5,-9,-5,-1,-5
24,90,69,34,9,98.0,1.0,105,12,7,4,7,5,-2,-1,0,-5
25,94,69,34,9,102.0,1.0,95,12,7,4,7,5,-2,-1,0,-5
26,98,79,40,7,106.0,2.0,105,13,17,10,5,4,1,1,1,-4
27,101,74,37,2,110.0,1.0,95,13,12,7,0,1,-2,-1,-1,-5
28,105,69,34,9,114.0,1.0,105,14,7,4,7,5,3,2,-1,-6
29,109,64,31,4,118.0,1.0,95,14,2,1,2,2,-2,-1,-1,-7
30,113,62,30,2,122.0,2.0,105,15,0,0,0,1,-4,-2,-1,-8
31,116,74,37,2,126.0,1.0,95,15,12,7,0,1,1,1,1,-7
32,120,81,41,9,130.0,1.0,105,16,19,11,7,5,2,1,1,-6
33,124,79,40,7,134.0,1.0,95,16,17,10,5,4,1,1,-1,-7
34,128,79,40,7,138.0,1.0,105,17,17,10,5,4,1,1,0,-7
35,132,74,37,2,142.0,1.0,95,17,12,7,0,1,1,1,-1,-8
36,136,69,34,9,146.0,1.0,105,18,7,4,7,5,3,2,-1,-9
37,140,78,39,6,150.0,1.0,95,18,16,9,4,3,2,1,1,-8
38,144,76,38,4,154.0,1.0,105,19,14,8,2,2,-2,-1,-1,-9
39,148,74,37,2,158.0,1.0,95,19,12,7,0,1,-4,-2,-1,-10
40,152,81,41,9,162.0,1.0,105,20,19,11,7,5,2,1,1,-9
41,156,79,40,7,166.0,1.0,95,20,17,10,5,4,1,1,-1,-10
42,160,79,40,7,170.0,1.0,105,21,17,10,5,4,1,1,0,-10
43,164,74,37,2,174.0,1.0,95,21,12,7,0,1,1,1,-1,-11
44,168,69,34,9,178.0,1.0,105,22,7,4,7,5,3,2,-1,-12
45,172,64,31,4,182.0,1.0,95,22,2,1,2,2,-2,-1,-1,-13
46,176,62,30,2,186.0,2.0,105,23,0,0,0,1,-4,-2,-1,-14
47,179,74,37,2,190.0,1.0,95,23,12,7,0,1,1,1,1,-13
48,183,81,41,9,194.0,1.0,105,24,19,11,7,5,2,1,1,-12
49,187,79,40,7,198.0,1.0,95,24,17,10,5,4,1,1,-1,-13
50,191,79,40,7,202.0,1.0,105,25,17,10,5,4,1,1,0,-13
51,195,74,37,2,206.0,1.0,95,25,12,7,0,1,1,1,-1,-14
52,199,71,35,11,210.0,1.0,105,26,9,5,9,6,2,1,-1,-15
53,203,78,39,6,214.0,1.0,95,26,16,9,4,3,2,1,1,-14
54,207,76,38,4,218.0,1.0,105,27,14,8,2,2,-2,-1,-1,-15
55,211,78,39,6,222.0,1.0,95,27,16,9,4,3,-1,-1,1,-14
56,215,81,41,9,226.0,1.0,105,28,19,11,7,5,-2,-1,1,-13
57,219,79,40,7,230.0,1.0,95,28,17,10,5,4,1,1,-1,-14
58,223,78,39,6,234.0,1.0,105,29,16,9,4,3,-1,-1,-1,-15
59,227,74,37,2,238.0,1.0,95,29,12,7,0,1,1,1,-1,-16
60,231,69,34,9,242.0,1.0,105,30,7,4,7,5,3,2,-1,-17
61,235,64,31,4,246.0,1.0,95,30,2,1,2,2,-2,-1,-1,-18
62,239,62,30,2,250.0,1.0,105,31,0,0,0,1,-2,-1,-1,-19
63,243,62,30,2,254.0,2.0,95,31,0,0,0,1,1,1,0,-19
64,246,62,30,2,258.0,1.0,105,32,0,0,0,1,-2,-1,0,-19
65,250,62,30,2,262.0,1.0,95,32,0,0,0,1,-4,-2,0,-19
66,254,66,32,6,266.0,1.0,105,33,4,2,4,3,-1,-1,1,-18
67,258,74,37,2,270.0,1.0,95,33,12,7,0,1,1,1,1,-17
68,262,71,35,11,274.0,1.0,105,34,9,5,9,6,2,1,-1,-18
69,266,78,39,6,278.0,1.0,95,34,16,9,4,3,2,1,1,-17
70,270,76,38,4,282.0,1.0,105,35,14,8,2,2,-2,-1,-1,-18
71,274,64,31,4,286.0,1.0,95,35,2,1,2,2,-2,-1,-1,-19
72,278,62,30,2,290.0,1.0,105,36,0,0,0,1,-2,-1,-1,-20
73,282,67,33,7,294.0,0.67,95,36,5,3,5,4,1,1,1,-19
74,287,66,32,6,298.0,1.0,105,37,4,2,4,3,-1,-1,-1,-20
75,291,74,37,2,302.0,1.0,95,37,12,7,0,1,1,1,1,-19
76,295,71,35,11,306.0,1.0,105,38,9,5,9,6,2,1,-1,-20
77,299,69,34,9,310.0,1.0,95,38,7,4,7,5,-5,-3,-1,-21
78,303,62,30,2,314.0,0.67,105,39,0,0,0,1,-2,-1,-1,-22
79,308,62,30,2,318.0,2.0,95,39,0,0,0,1,-2,-1,0,-22
80,311,62,30,2,322.0,1.0,105,40,0,0,0,1,-2,-1,0,-22
81,315,62,30,2,326.0,1.0,95,40,0,0,0,1,-4,-2,0,-22
82,319,66,32,6,330.0,1.0,105,41,4,2,4,3,-1,-1,1,-21
83,323,74,37,2,334.0,1.0,95,41,12,7,0,1,1,1,1,-20
84,327,71,35,11,338.0,1.0,105,42,9,5,9,6,2,1,-1,-21
85,331,78,39,6,342.0,1.0,95,42,16,9,4,3,2,1,1,-20
86,335,76,38,4,346.0,1.0,105,43,14,8,2,2,-2,-1,-1,-21
87,339,66,32,6,350.0,1.0,95,43,4,2,4,3,-1,-1,-1,-22
88,343,62,30,2,354.0,1.0,105,44,0,0,0,1,-7,-4,-1,-23
89,347,67,33,7,358.0,0.67,95,44,5,3,5,4,1,1,1,-22
90,352,66,32,6,362.0,1.0,105,45,4,2,4,3,-1,-1,-1,-23
91,356,74,37,2,366.0,1.0,95,45,12,7,0,1,1,1,1,-22
92,360,71,35,11,370.0,1.0,105,46,9,5,9,6,2,1,-1,-23
93,364,69,34,9,374.0,1.0,95,46,7,4,7,5,-5,-3,-1,-24
94,368,62,30,2,378.0,2.0,105,47,0,0,0,1,-4,-2,-1,-25
95,371,78,39,6,382.0,1.0,95,47,16,9,4,3,-1,-1,1,-24
96,375,81,41,9,386.0,1.0,105,48,19,11,7,5,-2,-1,1,-23
97,379,79,40,7,390.0,1.0,95,48,17,10,5,4,-2,-1,-1,-24
98,383,78,39,6,394.0,1.0,105,49,16,9,4,3,-1,-1,-1,-25
99,387,74,37,2,398.0,1.0,95,49,12,7,0,1,1,1,-1,-26
100,391,69,34,9,402.0,1.0,105,50,7,4,7,5,3,2,-1,-27
101,395,78,39,6,406.0,1.0,95,50,16,9,4,3,2,1,1,-26
102,399,76,38,4,410.0,1.0,105,51,14,8,2,2,-2,-1,-1,-27
103,403,78,39,6,414.0,1.0,95,51,16,9,4,3,-1,-1,1,-26
104,407,81,41,9,418.0,1.0,105,52,19,11,7,5,-2,-1,1,-25
105,411,79,40,7,422.0,0.67,95,52,17,10,5,4,-2,-1,-1,-26
106,417,76,38,4,426.0,1.0,105,53,14,8,2,2,-2,-1,-1,-27
107,421,74,37,2,430.0,1.0,95,53,12,7,0,1,1,1,-1,-28
108,425,69,34,9,434.0,1.0,105,54,7,4,7,5,3,2,-1,-29
109,429,64,31,4,438.0,1.0,95,54,2,1,2,2,-2,-1,-1,-30
110,433,62,30,2,442.0,2.0,105,55,0,0,0,1,-4,-2,-1,-31
111,436,78,39,6,446.0,1.0,95,55,16,9,4,3,-1,-1,1,-30
112,440,81,41,9,450.0,1.0,105,56,19,11,7,5,-2,-1,1,-29
113,444,79,40,7,454.0,1.0,95,56,17,10,5,4,-2,-1,-1,-30
114,448,78,39,6,458.0,1.0,105,57,16,9,4,3,-1,-1,-1,-31
115,452,74,37,2,462.0,1.0,95,57,12,7,0,1,1,1,-1,-32
116,456,69,34,9,466.0,1.0,105,58,7,4,7,5,3,2,-1,-33
117,460,78,39,6,470.0,1.0,95,58,16,9,4,3,2,1,1,-32
118,464,76,38,4,474.0,1.0,105,59,14,8,2,2,-2,-1,-1,-33
119,468,78,39,6,478.0,1.0,95,59,16,9,4,3,-1,-1,1,-32
120,472,81,41,9,482.0,1.0,105,60,19,11,7,5,-2,-1,1,-31
121,476,79,40,7,486.0,0.67,95,60,17,10,5,4,-2,-1,-1,-32
122,481,79,40,7,490.0,1.0,105,61,17,10,5,4,-2,-1,0,-32
123,485,74,37,2,494.0,1.0,95,61,12,7,0,1,1,1,-1,-33
124,489,71,35,11,498.0,1.0,105,62,9,5,9,6,2,1,-1,-34
125,493,69,34,9,502.0,1.0,95,62,7,4,7,5,-2,-1,-1,-35
126,497,62,30,2,506.0,1.0,105,63,0,0,0,1,-2,-1,-1,-36
127,501,62,30,2,510.0,2.0,95,63,0,0,0,1,1,1,0,-36
