,index,midi_note_num,diatonic_note_num,chromatic_pitch_class,onset,duration,velocity,bar_count,relative_chromatic_pitch,relative_diatonic_pitch,chromatic_scale_degree,diatonic_scale_degree,chromatic_interval,diatonic_interval,parsons_code,parsons_cumsum
0,0,71,35,11,0.0,2.0,105,0,4,2,4,3,0,0,0,0
1,3,71,35,11,4.0,1.33,95,0,4,2,4,3,0,0,0,0
2,7,72,36,0,8.0,2.0,105,1,5,3,5,4,1,1,1,1
3,10,64,31,4,12.0,1.33,95,1,-3,-2,9,6,-8,-5,-1,0
4,14,71,35,11,16.0,1.33,105,2,4,2,4,3,7,4,1,1
5,18,71,35,11,20.0,1.33,95,2,4,2,4,3,0,0,0,1
6,22,69,34,9,24.0,1.33,105,3,2,1,2,2,-5,-3,-1,0
7,26,69,34,9,28.0,1.33,95,3,2,1,2,2,0,0,0,0
8,30,71,35,11,32.0,2.0,105,4,4,2,4,3,2,1,1,1
9,33,71,35,11,36.0,1.33,95,4,4,2,4,3,0,0,0,1
10,37,72,36,0,40.0,2.0,105,5,5,3,5,4,1,1,1,2
11,40,64,31,4,44.0,1.33,95,5,-3,-2,9,6,-8,-5,-1,1
12,44,71,35,11,48.0,1.33,105,6,4,2,4,3,7,4,1,2
13,48,69,34,9,52.0,1.33,95,6,2,1,2,2,-2,-1,-1,1
14,52,67,33,7,56.0,4.0,105,7,0,0,0,1,-2,-1,-1,0
15,53,67,33,7,60.0,2.0,95,7,0,0,0,1,0,0,0,0
16,56,71,35,11,64.0,2.0,105,8,4,2,4,3,-1,-1,1,1
17,59,71,35,11,68.0,1.33,95,8,4,2,4,3,0,0,0,1
18,63,72,36,0,72.0,2.0,105,9,5,3,5,4,1,1,1,2
19,66,64,31,4,76.0,1.33,95,9,-3,-2,9,6,-8,-5,-1,1
20,70,71,35,11,80.0,1.33,105,10,4,2,4,3,7,4,1,2
21,74,71,35,11,84.0,1.33,95,10,4,2,4,3,0,0,0,2
22,78,69,34,9,88.0,1.33,105,11,2,1,2,2,-5,-3,-1,1
23,82,69,34,9,92.0,1.33,95,11,2,1,2,2,0,0,0,1
24,86,71,35,11,96.0,2.0,105,12,4,2,4,3,2,1,1,2
25,89,71,35,11,100.0,1.33,95,12,4,2,4,3,0,0,0,2
26,93,72,36,0,104.0,2.0,105,13,5,3,5,4,1,1,1,3
27,96,64,31,4,108.0,1.33,95,13,-3,-2,9,6,-8,-5,-1,2
28,100,71,35,11,112.0,1.33,105,14,4,2,4,3,7,4,1,3
29,104,69,34,9,116.0,1.33,95,14,2,1,2,2,-2,-1,-1,2
30,108,67,33,7,120.0,4.0,105,15,0,0,0,1,-2,-1,-1,1
31,109,67,33,7,124.0,2.0,95,15,0,0,0,1,0,0,0,1
32,111,74,37,2,128.0,2.0,105,16,7,4,7,5,12,7,1,2
33,114,67,33,7,132.0,1.33,95,16,0,0,0,1,-7,-4,-1,1
34,118,72,36,0,136.0,2.0,105,17,5,3,5,4,10,6,1,2
35,121,64,31,4,140.0,1.33,95,17,-3,-2,9,6,-8,-5,-1,1
36,125,71,35,11,144.0,1.33,105,18,4,2,4,3,7,4,1,2
37,129,71,35,11,148.0,1.33,95,18,4,2,4,3,0,0,0,2
38,133,69,34,9,152.0,1.33,105,19,2,1,2,2,-5,-3,-1,1
39,137,69,34,9,156.0,1.33,95,19,2,1,2,2,0,0,0,1
40,141,74,37,2,160.0,2.0,105,20,7,4,7,5,5,3,1,2
41,144,67,33,7,164.0,1.33,95,20,0,0,0,1,-7,-4,-1,1
42,148,72,36,0,168.0,2.0,105,21,5,3,5,4,10,6,1,2
43,151,64,31,4,172.0,1.33,95,21,-3,-2,9,6,-8,-5,-1,1
44,155,71,35,11,176.0,1.33,105,22,4,2,4,3,7,4,1,2
45,159,69,34,9,180.0,1.33,95,22,2,1,2,2,-2,-1,-1,1
46,163,67,33,7,184.0,4.0,105,23,0,0,0,1,-2,-1,-1,0
47,164,67,33,7,188.0,2.0,95,23,0,0,0,1,0,0,0,0
48,166,74,37,2,192.0,2.0,105,24,7,4,7,5,12,7,1,1
49,169,67,33,7,196.0,1.33,95,24,0,0,0,1,-7,-4,-1,0
50,173,72,36,0,200.0,2.0,105,25,5,3,5,4,10,6,1,1
51,176,64,31,4,204.0,1.33,95,25,-3,-2,9,6,-8,-5,-1,0
52,180,71,35,11,208.0,1.33,105,26,4,2,4,3,7,4,1,1
53,184,71,35,11,212.0,1.33,95,26,4,2,4,3,0,0,0,1
54,188,69,34,9,216.0,1.33,105,27,2,1,2,2,-5,-3,-1,0
55,192,69,34,9,220.0,1.33,95,27,2,1,2,2,0,0,0,0
56,196,71,35,11,224.0,2.0,105,28,4,2,4,3,2,1,1,1
57,199,71,35,11,228.0,1.33,95,28,4,2,4,3,0,0,0,1
58,203,72,36,0,232.0,2.0,105,29,5,3,5,4,1,1,1,2
59,206,64,31,4,236.0,1.33,95,29,-3,-2,9,6,-8,-5,-1,1
60,209,71,35,11,240.0,1.33,105,30,4,2,4,3,-1,-1,1,2
61,213,69,34,9,244.0,1.33,95,30,2,1,2,2,-2,-1,-1,1
62,217,67,33,7,248.0,4.0,105,31,0,0,0,1,-2,-1,-1,0
63,218,67,33,7,252.0,2.0,95,31,0,0,0,1,0,0,0,0
64,221,71,35,11,256.0,1.33,105,32,4,2,4,3,4,2,1,1
65,226,62,30,2,260.0,1.33,95,32,-5,-3,7,5,0,0,-1,0
66,230,72,36,0,264.0,1.33,105,33,5,3,5,4,10,6,1,1
67,233,64,31,4,268.0,1.33,95,33,-3,-2,9,6,0,0,-1,0
68,237,71,35,11,272.0,1.33,105,34,4,2,4,3,-1,-1,1,1
69,242,67,33,7,276.0,1.33,95,34,0,0,0,1,5,3,-1,0
70,246,69,34,9,280.0,1.33,105,35,2,1,2,2,-5,-3,1,1
71,250,69,34,9,284.0,1.33,95,35,2,1,2,2,0,0,0,1
72,254,71,35,11,288.0,1.33,105,36,4,2,4,3,2,1,1,2
73,259,62,30,2,292.0,1.33,95,36,-5,-3,7,5,0,0,-1,1
74,263,72,36,0,296.0,1.33,105,37,5,3,5,4,10,6,1,2
75,266,64,31,4,300.0,1.33,95,37,-3,-2,9,6,0,0,-1,1
76,270,71,35,11,304.0,1.33,105,38,4,2,4,3,-1,-1,1,2
77,274,69,34,9,308.0,1.33,95,38,2,1,2,2,-2,-1,-1,1
78,278,67,33,7,312.0,4.0,105,39,0,0,0,1,-2,-1,-1,0
79,279,67,33,7,316.0,2.0,95,39,0,0,0,1,0,0,0,0
80,282,71,35,11,320.0,1.33,105,40,4,2,4,3,4,2,1,1
81,287,62,30,2,324.0,1.33,95,40,-5,-3,7,5,0,0,-1,0
82,291,72,36,0,328.0,1.33,105,41,5,3,5,4,10,6,1,1
83,294,64,31,4,332.0,1.33,95,41,-3,-2,9,6,0,0,-1,0
84,298,71,35,11,336.0,1.33,105,42,4,2,4,3,-1,-1,1,1
85,303,67,33,7,340.0,1.33,95,42,0,0,0,1,5,3,-1,0
86,307,69,34,9,344.0,1.33,105,43,2,1,2,2,-5,-3,1,1
87,311,69,34,9,348.0,1.33,95,43,2,1,2,2,0,0,0,1
88,315,71,35,11,352.0,1.33,105,44,4,2,4,3,2,1,1,2
89,320,62,30,2,356.0,1.33,95,44,-5,-3,7,5,0,0,-1,1
90,324,72,36,0,360.0,1.33,105,45,5,3,5,4,10,6,1,2
91,327,64,31,4,364.0,1.33,95,45,-3,-2,9,6,0,0,-1,1
92,331,71,35,11,368.0,1.33,105,46,4,2,4,3,-1,-1,1,2
93,335,69,34,9,372.0,1.33,95,46,2,1,2,2,-2,-1,-1,1
94,339,67,33,7,376.0,4.0,105,47,0,0,0,1,-2,-1,-1,0
95,340,67,33,7,380.0,2.0,95,47,0,0,0,1,0,0,0,0
96,342,74,37,2,384.0,2.0,105,48,7,4,7,5,12,7,1,1
97,344,71,35,11,388.0,1.33,95,48,4,2,4,3,-3,-2,-1,0
98,348,72,36,0,392.0,1.33,105,49,5,3,5,4,1,1,1,1
99,352,64,31,4,396.0,1.33,95,49,-3,-2,9,6,-8,-5,-1,0
100,356,71,35,11,400.0,1.33,105,50,4,2,4,3,2,1,1,1
101,361,67,33,7,404.0,1.33,95,50,0,0,0,1,5,3,-1,0
102,365,69,34,9,408.0,1.33,105,51,2,1,2,2,-5,-3,1,1
103,369,69,34,9,412.0,1.33,95,51,2,1,2,2,0,0,0,1
104,373,74,37,2,416.0,2.0,105,52,7,4,7,5,5,3,1,2
105,375,71,35,11,420.0,1.33,95,52,4,2,4,3,-3,-2,-1,1
106,379,72,36,0,424.0,1.33,105,53,5,3,5,4,1,1,1,2
107,383,64,31,4,428.0,1.33,95,53,-3,-2,9,6,-8,-5,-1,1
108,387,71,35,11,432.0,1.33,105,54,4,2,4,3,2,1,1,2
109,391,69,34,9,436.0,1.33,95,54,2,1,2,2,-2,-1,-1,1
110,395,67,33,7,440.0,4.0,105,55,0,0,0,1,-2,-1,-1,0
111,396,67,33,7,444.0,2.0,95,55,0,0,0,1,0,0,0,0
112,398,74,37,2,448.0,2.0,105,56,7,4,7,5,12,7,1,1
113,400,71,35,11,452.0,1.33,95,56,4,2,4,3,-3,-2,-1,0
114,404,72,36,0,456.0,1.33,105,57,5,3,5,4,1,1,1,1
115,408,64,31,4,460.0,1.33,95,57,-3,-2,9,6,-8,-5,-1,0
116,412,71,35,11,464.0,1.33,105,58,4,2,4,3,2,1,1,1
117,417,67,33,7,468.0,1.33,95,58,0,0,0,1,5,3,-1,0
118,421,69,34,9,472.0,1.33,105,59,2,1,2,2,-5,-3,1,1
119,425,69,34,9,476.0,1.33,95,59,2,1,2,2,0,0,0,1
120,429,71,35,11,480.0,2.0,105,60,4,2,4,3,2,1,1,2
121,432,71,35,11,484.0,1.33,95,60,4,2,4,3,0,0,0,2
122,436,72,36,0,488.0,2.0,105,61,5,3,5,4,1,1,1,3
123,439,64,31,4,492.0,1.33,95,61,-3,-2,9,6,-8,-5,-1,2
124,443,71,35,11,496.0,1.33,105,62,4,2,4,3,7,4,1,3
125,447,69,34,9,500.0,1.33,95,62,2,1,2,2,-2,-1,-1,2
126,451,67,33,7,504.0,4.0,105,63,0,0,0,1,-2,-1,-1,1
127,452,67,33,7,508.0,2.0,95,63,0,0,0,1,0,0,0,1
128,453,71,35,11,512.0,1.33,105,64,4,2,4,3,4,2,1,2
129,457,62,30,2,516.0,1.33,95,64,-5,-3,7,5,-9,-5,-1,1
130,461,72,36,0,520.0,1.33,105,65,5,3,5,4,10,6,1,2
131,465,64,31,4,524.0,1.33,95,65,-3,-2,9,6,-8,-5,-1,1
132,469,71,35,11,528.0,1.33,105,66,4,2,4,3,7,4,1,2
133,473,62,30,2,532.0,1.33,95,66,-5,-3,7,5,-9,-5,-1,1
134,477,69,34,9,536.0,1.33,105,67,2,1,2,2,7,4,1,2
135,481,72,36,0,540.0,1.33,95,67,5,3,5,4,10,6,1,3
136,485,71,35,11,544.0,1.33,105,68,4,2,4,3,-1,-1,-1,2
137,489,62,30,2,548.0,1.33,95,68,-5,-3,7,5,-9,-5,-1,1
138,493,72,36,0,552.0,1.33,105,69,5,3,5,4,10,6,1,2
139,497,64,31,4,556.0,1.33,95,69,-3,-2,9,6,-8,-5,-1,1
140,501,71,35,11,560.0,1.33,105,70,4,2,4,3,7,4,1,2
141,505,69,34,9,564.0,1.33,95,70,2,1,2,2,-2,-1,-1,1
142,509,67,33,7,568.0,4.0,105,71,0,0,0,1,-2,-1,-1,0
143,510,67,33,7,572.0,4.0,95,71,0,0,0,1,0,0,0,0
144,511,71,35,11,576.0,1.33,105,72,4,2,4,3,4,2,1,1
145,515,62,30,2,580.0,1.33,95,72,-5,-3,7,5,-9,-5,-1,0
146,519,72,36,0,584.0,1.33,105,73,5,3,5,4,10,6,1,1
147,523,64,31,4,588.0,1.33,95,73,-3,-2,9,6,-8,-5,-1,0
148,527,71,35,11,592.0,1.33,105,74,4,2,4,3,7,4,1,1
149,531,62,30,2,596.0,1.33,95,74,-5,-3,7,5,-9,-5,-1,0
150,535,69,34,9,600.0,1.33,105,75,2,1,2,2,7,4,1,1
151,539,72,36,0,604.0,1.33,95,75,5,3,5,4,10,6,1,2
152,543,71,35,11,608.0,1.33,105,76,4,2,4,3,-1,-1,-1,1
153,547,62,30,2,612.0,1.33,95,76,-5,-3,7,5,-9,-5,-1,0
154,551,72,36,0,616.0,1.33,105,77,5,3,5,4,10,6,1,1
155,555,64,31,4,620.0,1.33,95,77,-3,-2,9,6,-8,-5,-1,0
156,559,71,35,11,624.0,1.33,105,78,4,2,4,3,7,4,1,1
157,563,69,34,9,628.0,1.33,95,78,2,1,2,2,-2,-1,-1,0
158,567,67,33,7,632.0,4.0,105,79,0,0,0,1,-2,-1,-1,-1
159,568,67,33,7,636.0,4.0,95,79,0,0,0,1,0,0,0,-1
