,index,midi_note_num,diatonic_note_num,chromatic_pitch_class,onset,duration,velocity,bar_count,relative_chromatic_pitch,relative_diatonic_pitch,chromatic_scale_degree,diatonic_scale_degree,chromatic_interval,diatonic_interval,parsons_code,parsons_cumsum
0,3,67,33,7,2.0,2.0,105,0,0,0,0,1,0,0,0,0
1,6,71,35,11,6.0,1.0,95,0,4,2,4,3,4,2,1,1
2,10,69,34,9,10.0,1.0,105,1,2,1,2,2,2,1,-1,0
3,14,66,32,6,14.0,1.0,95,1,-1,-1,11,7,-1,-1,-1,-1
4,18,67,33,7,18.0,2.0,105,2,0,0,0,1,1,1,1,0
5,21,71,35,11,22.0,1.0,95,2,4,2,4,3,4,2,1,1
6,25,69,34,9,26.0,1.0,105,3,2,1,2,2,2,1,-1,0
7,29,74,37,2,30.0,1.0,95,3,7,4,7,5,-2,-1,1,1
8,33,67,33,7,34.0,2.0,105,4,0,0,0,1,-2,-1,-1,0
9,36,71,35,11,38.0,1.0,95,4,4,2,4,3,4,2,1,1
10,40,69,34,9,42.0,1.0,105,5,2,1,2,2,2,1,-1,0
11,44,66,32,6,46.0,1.0,95,5,-1,-1,11,7,-1,-1,-1,-1
12,48,72,36,0,50.0,1.0,105,6,5,3,5,4,1,1,1,0
13,52,72,36,0,54.0,1.0,95,6,5,3,5,4,1,1,0,0
14,56,62,30,2,58.0,2.0,105,7,-5,-3,7,5,-5,-3,-1,-1
15,58,67,33,7,62.0,2.0,95,7,0,0,0,1,1,1,1,0
16,62,67,33,7,66.0,2.0,105,8,0,0,0,1,1,1,0,0
17,65,71,35,11,70.0,1.0,95,8,4,2,4,3,4,2,1,1
18,69,69,34,9,74.0,1.0,105,9,2,1,2,2,2,1,-1,0
19,73,66,32,6,78.0,1.0,95,9,-1,-1,11,7,-1,-1,-1,-1
20,77,67,33,7,82.0,2.0,105,10,0,0,0,1,1,1,1,0
21,80,71,35,11,86.0,1.0,95,10,4,2,4,3,4,2,1,1
22,84,69,34,9,90.0,1.0,105,11,2,1,2,2,2,1,-1,0
23,88,74,37,2,94.0,1.0,95,11,7,4,7,5,-2,-1,1,1
24,92,67,33,7,98.0,2.0,105,12,0,0,0,1,-2,-1,-1,0
25,95,71,35,11,102.0,1.0,95,12,4,2,4,3,4,2,1,1
26,99,69,34,9,106.0,1.0,105,13,2,1,2,2,2,1,-1,0
27,103,66,32,6,110.0,1.0,95,13,-1,-1,11,7,-1,-1,-1,-1
28,107,72,36,0,114.0,1.0,105,14,5,3,5,4,1,1,1,0
29,111,72,36,0,118.0,1.0,95,14,5,3,5,4,1,1,0,0
30,115,62,30,2,122.0,2.0,105,15,-5,-3,7,5,-5,-3,-1,-1
31,117,67,33,7,126.0,2.0,95,15,0,0,0,1,1,1,1,0
32,120,74,37,2,130.0,2.0,105,16,7,4,7,5,2,1,1,1
33,123,79,40,7,134.0,2.0,95,16,12,7,0,1,1,1,1,2
34,126,74,37,2,138.0,1.0,105,17,7,4,7,5,-2,-1,-1,1
35,130,69,34,9,142.0,2.0,95,17,2,1,2,2,-2,-1,-1,0
36,133,74,37,2,146.0,2.0,105,18,7,4,7,5,2,1,1,1
37,136,79,40,7,150.0,2.0,95,18,12,7,0,1,1,1,1,2
38,139,78,39,6,154.0,1.0,105,19,11,6,11,7,2,1,-1,1
39,143,74,37,2,158.0,2.0,95,19,7,4,7,5,-2,-1,-1,0
40,146,74,37,2,162.0,2.0,105,20,7,4,7,5,2,1,0,0
41,149,79,40,7,166.0,2.0,95,20,12,7,0,1,1,1,1,1
42,152,74,37,2,170.0,1.0,105,21,7,4,7,5,-2,-1,-1,0
43,156,69,34,9,174.0,2.0,95,21,2,1,2,2,-2,-1,-1,-1
44,159,71,35,11,178.0,1.0,105,22,4,2,4,3,2,1,1,0
45,163,72,36,0,182.0,1.0,95,22,5,3,5,4,1,1,1,1
46,167,62,30,2,186.0,2.0,105,23,-5,-3,7,5,-5,-3,-1,0
47,169,67,33,7,190.0,2.0,95,23,0,0,0,1,1,1,1,1
48,172,74,37,2,194.0,2.0,105,24,7,4,7,5,2,1,1,2
49,175,79,40,7,198.0,2.0,95,24,12,7,0,1,1,1,1,3
50,178,74,37,2,202.0,1.0,105,25,7,4,7,5,-2,-1,-1,2
51,182,69,34,9,206.0,2.0,95,25,2,1,2,2,-2,-1,-1,1
52,185,74,37,2,210.0,2.0,105,26,7,4,7,5,2,1,1,2
53,188,79,40,7,214.0,2.0,95,26,12,7,0,1,1,1,1,3
54,191,78,39,6,218.0,1.0,105,27,11,6,11,7,2,1,-1,2
55,195,74,37,2,222.0,2.0,95,27,7,4,7,5,-2,-1,-1,1
56,198,74,37,2,226.0,2.0,105,28,7,4,7,5,2,1,0,1
57,201,79,40,7,230.0,2.0,95,28,12,7,0,1,1,1,1,2
58,204,74,37,2,234.0,1.0,105,29,7,4,7,5,-2,-1,-1,1
59,208,69,34,9,238.0,2.0,95,29,2,1,2,2,-2,-1,-1,0
60,211,71,35,11,242.0,1.0,105,30,4,2,4,3,2,1,1,1
61,215,72,36,0,246.0,1.0,95,30,5,3,5,4,1,1,1,2
62,219,66,32,6,250.0,2.0,105,31,-1,-1,11,7,-1,-1,-1,1
63,221,67,33,7,254.0,3.0,95,31,0,0,0,1,-2,-1,1,2
64,223,71,35,11,258.0,3.0,105,32,4,2,4,3,2,1,1,3
65,225,72,36,0,262.0,3.0,95,32,5,3,5,4,5,3,1,4
66,227,71,35,11,266.0,3.0,105,33,4,2,4,3,2,1,-1,3
67,229,64,31,4,270.0,1.0,95,33,-3,-2,9,6,-3,-2,-1,2
68,233,71,35,11,274.0,2.0,105,34,4,2,4,3,2,1,1,3
69,236,72,36,0,278.0,2.0,95,34,5,3,5,4,1,1,1,4
70,239,69,34,9,282.0,1.0,105,35,2,1,2,2,-2,-1,-1,3
71,243,62,30,2,286.0,2.0,95,35,-5,-3,7,5,-2,-1,-1,2
72,246,71,35,11,290.0,3.0,105,36,4,2,4,3,2,1,1,3
73,248,72,36,0,294.0,3.0,95,36,5,3,5,4,5,3,1,4
74,250,71,35,11,298.0,3.0,105,37,4,2,4,3,2,1,-1,3
75,252,64,31,4,302.0,1.0,95,37,-3,-2,9,6,-3,-2,-1,2
76,256,71,35,11,306.0,1.0,105,38,4,2,4,3,2,1,1,3
77,260,69,34,9,310.0,1.0,95,38,2,1,2,2,2,1,-1,2
78,264,67,33,7,314.0,1.0,105,39,0,0,0,1,1,1,-1,1
79,268,74,37,2,318.0,1.0,95,39,7,4,7,5,2,1,1,2
80,272,71,35,11,322.0,3.0,105,40,4,2,4,3,-1,-1,-1,1
81,274,72,36,0,326.0,3.0,95,40,5,3,5,4,5,3,1,2
82,276,71,35,11,330.0,3.0,105,41,4,2,4,3,2,1,-1,1
83,278,64,31,4,334.0,1.0,95,41,-3,-2,9,6,-3,-2,-1,0
84,282,71,35,11,338.0,2.0,105,42,4,2,4,3,2,1,1,1
85,285,72,36,0,342.0,2.0,95,42,5,3,5,4,1,1,1,2
86,288,69,34,9,346.0,1.0,105,43,2,1,2,2,-2,-1,-1,1
87,292,62,30,2,350.0,2.0,95,43,-5,-3,7,5,-2,-1,-1,0
88,295,71,35,11,354.0,3.0,105,44,4,2,4,3,2,1,1,1
89,297,72,36,0,358.0,3.0,95,44,5,3,5,4,5,3,1,2
90,299,71,35,11,362.0,3.0,105,45,4,2,4,3,2,1,-1,1
91,301,64,31,4,366.0,1.0,95,45,-3,-2,9,6,-3,-2,-1,0
92,305,71,35,11,370.0,1.0,105,46,4,2,4,3,2,1,1,1
93,309,69,34,9,374.0,1.0,95,46,2,1,2,2,2,1,-1,0
94,313,67,33,7,378.0,2.0,105,47,0,0,0,1,1,1,-1,-1
95,315,67,33,7,382.0,2.0,95,47,0,0,0,1,-4,-2,0,-1
96,318,67,33,7,386.0,2.0,105,48,0,0,0,1,-2,-1,0,-1
97,320,81,41,9,390.0,1.0,95,48,14,8,2,2,2,1,1,0
98,324,78,39,6,394.0,2.0,105,49,11,6,11,7,-1,-1,-1,-1
99,327,78,39,6,398.0,1.0,95,49,11,6,11,7,-1,-1,0,-1
100,331,76,38,4,402.0,3.0,105,50,9,5,9,6,-2,-1,-1,-2
101,333,76,38,4,406.0,1.0,95,50,9,5,9,6,2,1,0,-2
102,337,76,38,4,410.0,3.0,105,51,9,5,9,6,-2,-1,0,-2
103,339,76,38,4,414.0,1.0,95,51,9,5,9,6,2,1,0,-2
104,343,71,35,11,418.0,2.0,105,52,4,2,4,3,-3,-2,-1,-3
105,345,81,41,9,422.0,1.0,95,52,14,8,2,2,2,1,1,-2
106,349,78,39,6,426.0,2.0,105,53,11,6,11,7,-1,-1,-1,-3
107,352,78,39,6,430.0,1.0,95,53,11,6,11,7,-1,-1,0,-3
108,356,76,38,4,434.0,1.0,105,54,9,5,9,6,-2,-1,-1,-4
109,360,69,34,9,438.0,1.0,95,54,2,1,2,2,2,1,-1,-5
110,364,67,33,7,442.0,1.0,105,55,0,0,0,1,1,1,-1,-6
111,368,74,37,2,446.0,1.0,95,55,7,4,7,5,2,1,1,-5
112,372,67,33,7,450.0,2.0,105,56,0,0,0,1,-2,-1,-1,-6
113,374,81,41,9,454.0,1.0,95,56,14,8,2,2,2,1,1,-5
114,378,78,39,6,458.0,2.0,105,57,11,6,11,7,-1,-1,-1,-6
115,381,78,39,6,462.0,1.0,95,57,11,6,11,7,-1,-1,0,-6
116,385,76,38,4,466.0,3.0,105,58,9,5,9,6,-2,-1,-1,-7
117,387,76,38,4,470.0,1.0,95,58,9,5,9,6,2,1,0,-7
118,391,76,38,4,474.0,3.0,105,59,9,5,9,6,-2,-1,0,-7
119,393,76,38,4,478.0,1.0,95,59,9,5,9,6,2,1,0,-7
120,397,71,35,11,482.0,2.0,105,60,4,2,4,3,-3,-2,-1,-8
121,399,81,41,9,486.0,1.0,95,60,14,8,2,2,2,1,1,-7
122,403,78,39,6,490.0,2.0,105,61,11,6,11,7,-1,-1,-1,-8
123,406,78,39,6,494.0,1.0,95,61,11,6,11,7,-1,-1,0,-8
124,410,76,38,4,498.0,1.0,105,62,9,5,9,6,-2,-1,-1,-9
125,414,69,34,9,502.0,1.0,95,62,2,1,2,2,2,1,-1,-10
126,418,67,33,7,506.0,2.0,105,63,0,0,0,1,1,1,-1,-11
127,420,67,33,7,510.0,2.0,95,63,0,0,0,1,-4,-2,0,-11
128,423,62,30,2,514.0,2.0,105,64,-5,-3,7,5,-2,-1,-1,-12
129,426,64,31,4,518.0,2.0,95,64,-3,-2,9,6,-3,-2,1,-11
130,429,71,35,11,522.0,1.0,105,65,4,2,4,3,2,1,1,-10
131,433,74,37,2,526.0,2.0,95,65,7,4,7,5,3,2,1,-9
132,436,69,34,9,530.0,2.0,105,66,2,1,2,2,-2,-1,-1,-10
133,439,64,31,4,534.0,2.0,95,66,-3,-2,9,6,-5,-3,-1,-11
134,442,66,32,6,538.0,1.0,105,67,-1,-1,11,7,-1,-1,1,-10
135,446,62,30,2,542.0,1.0,95,67,-5,-3,7,5,-4,-2,-1,-11
136,450,62,30,2,546.0,2.0,105,68,-5,-3,7,5,3,2,0,-11
137,453,64,31,4,550.0,2.0,95,68,-3,-2,9,6,-3,-2,1,-10
138,456,71,35,11,554.0,1.0,105,69,4,2,4,3,2,1,1,-9
139,460,74,37,2,558.0,2.0,95,69,7,4,7,5,3,2,1,-8
140,463,69,34,9,562.0,2.0,105,70,2,1,2,2,-2,-1,-1,-9
141,465,67,33,7,566.0,1.0,95,70,0,0,0,1,-2,-1,-1,-10
142,469,67,33,7,570.0,2.0,105,71,0,0,0,1,1,1,0,-10
143,471,67,33,7,574.0,2.0,95,71,0,0,0,1,-4,-2,0,-10
144,474,62,30,2,578.0,2.0,105,72,-5,-3,7,5,-2,-1,-1,-11
145,477,64,31,4,582.0,2.0,95,72,-3,-2,9,6,-3,-2,1,-10
146,480,71,35,11,586.0,1.0,105,73,4,2,4,3,2,1,1,-9
147,484,74,37,2,590.0,2.0,95,73,7,4,7,5,3,2,1,-8
148,487,69,34,9,594.0,2.0,105,74,2,1,2,2,-2,-1,-1,-9
149,490,64,31,4,598.0,2.0,95,74,-3,-2,9,6,-5,-3,-1,-10
150,493,66,32,6,602.0,1.0,105,75,-1,-1,11,7,-1,-1,1,-9
151,497,62,30,2,606.0,1.0,95,75,-5,-3,7,5,-4,-2,-1,-10
152,501,62,30,2,610.0,2.0,105,76,-5,-3,7,5,3,2,0,-10
153,504,64,31,4,614.0,2.0,95,76,-3,-2,9,6,-3,-2,1,-9
154,507,71,35,11,618.0,1.0,105,77,4,2,4,3,2,1,1,-8
155,511,74,37,2,622.0,2.0,95,77,7,4,7,5,3,2,1,-7
156,514,69,34,9,626.0,2.0,105,78,2,1,2,2,-2,-1,-1,-8
157,516,67,33,7,630.0,1.0,95,78,0,0,0,1,-2,-1,-1,-9
158,520,62,30,2,634.0,1.0,105,79,-5,-3,7,5,-4,-2,-1,-10
159,524,69,34,9,638.0,1.0,95,79,2,1,2,2,2,1,1,-9
160,528,67,33,7,642.0,2.0,105,80,0,0,0,1,-2,-1,-1,-10
161,531,76,38,4,646.0,1.0,95,80,9,5,9,6,9,5,1,-9
162,535,69,34,9,650.0,1.0,105,81,2,1,2,2,2,1,-1,-10
163,539,76,38,4,654.0,1.0,95,81,9,5,9,6,2,1,1,-9
164,543,69,34,9,658.0,2.0,105,82,2,1,2,2,-2,-1,-1,-10
165,546,78,39,6,662.0,1.0,95,82,11,6,11,7,9,5,1,-9
166,550,71,35,11,666.0,1.0,105,83,4,2,4,3,2,1,-1,-10
167,554,71,35,11,670.0,1.0,95,83,4,2,4,3,-1,-1,0,-10
168,558,67,33,7,674.0,2.0,105,84,0,0,0,1,3,2,-1,-11
169,561,76,38,4,678.0,1.0,95,84,9,5,9,6,9,5,1,-10
170,565,69,34,9,682.0,1.0,105,85,2,1,2,2,2,1,-1,-11
171,569,76,38,4,686.0,1.0,95,85,9,5,9,6,2,1,1,-10
172,573,69,34,9,690.0,2.0,105,86,2,1,2,2,-2,-1,-1,-11
173,575,67,33,7,694.0,1.0,95,86,0,0,0,1,-2,-1,-1,-12
174,579,62,30,2,698.0,1.0,105,87,-5,-3,7,5,-4,-2,-1,-13
175,583,69,34,9,702.0,1.0,95,87,2,1,2,2,2,1,1,-12
176,587,67,33,7,706.0,2.0,105,88,0,0,0,1,-2,-1,-1,-13
177,590,76,38,4,710.0,1.0,95,88,9,5,9,6,9,5,1,-12
178,594,69,34,9,714.0,1.0,105,89,2,1,2,2,2,1,-1,-13
179,598,76,38,4,718.0,1.0,95,89,9,5,9,6,2,1,1,-12
180,602,69,34,9,722.0,2.0,105,90,2,1,2,2,-2,-1,-1,-13
181,605,78,39,6,726.0,1.0,95,90,11,6,11,7,9,5,1,-12
182,609,71,35,11,730.0,1.0,105,91,4,2,4,3,2,1,-1,-13
183,613,71,35,11,734.0,1.0,95,91,4,2,4,3,-1,-1,0,-13
184,617,67,33,7,738.0,2.0,105,92,0,0,0,1,3,2,-1,-14
185,620,76,38,4,742.0,1.0,95,92,9,5,9,6,9,5,1,-13
186,624,69,34,9,746.0,1.0,105,93,2,1,2,2,2,1,-1,-14
187,628,76,38,4,750.0,1.0,95,93,9,5,9,6,2,1,1,-13
188,632,69,34,9,754.0,2.0,105,94,2,1,2,2,-2,-1,-1,-14
189,634,67,33,7,758.0,1.0,95,94,0,0,0,1,-2,-1,-1,-15
190,638,67,33,7,762.0,2.0,105,95,0,0,0,1,1,1,0,-15
191,640,79,40,7,766.0,4.0,95,95,12,7,0,1,5,3,1,-14
