,index,midi_note_num,diatonic_note_num,chromatic_pitch_class,onset,duration,velocity,bar_count,relative_chromatic_pitch,relative_diatonic_pitch,chromatic_scale_degree,diatonic_scale_degree,chromatic_interval,diatonic_interval,parsons_code,parsons_cumsum
0,0,62,30,2,0.0,2.0,105,0,0,0,0,1,0,0,0,0
1,2,73,36,1,3.0,1.0,95,0,11,6,11,7,-1,-1,1,1
2,5,69,34,9,6.0,1.0,105,1,7,4,7,5,3,2,-1,0
3,8,69,34,9,9.0,1.0,95,1,7,4,7,5,-2,-1,0,0
4,11,64,31,4,12.0,2.0,105,2,2,1,2,2,2,1,-1,-1
5,13,64,31,4,15.0,1.0,95,2,2,1,2,2,7,4,0,-1
6,16,67,33,7,18.0,1.0,105,3,5,3,5,4,0,0,1,0
7,19,64,31,4,21.0,1.0,95,3,2,1,2,2,0,0,-1,-1
8,22,62,30,2,24.0,2.0,105,4,0,0,0,1,1,1,-1,-2
9,24,73,36,1,27.0,1.0,95,4,11,6,11,7,-1,-1,1,-1
10,27,69,34,9,30.0,1.0,105,5,7,4,7,5,3,2,-1,-2
11,30,69,34,9,33.0,1.0,95,5,7,4,7,5,-2,-1,0,-2
12,33,64,31,4,36.0,3.0,105,6,2,1,2,2,2,1,-1,-3
13,34,76,38,4,39.0,1.0,95,6,14,8,2,2,12,7,1,-2
14,37,78,39,6,42.0,1.0,105,7,16,9,4,3,-1,-1,1,-1
15,40,71,35,11,45.0,1.0,95,7,9,5,9,6,-3,-2,-1,-2
16,43,62,30,2,48.0,2.0,105,8,0,0,0,1,-2,-1,-1,-3
17,45,73,36,1,51.0,1.0,95,8,11,6,11,7,-1,-1,1,-2
18,48,69,34,9,54.0,1.0,105,9,7,4,7,5,3,2,-1,-3
19,51,69,34,9,57.0,1.0,95,9,7,4,7,5,-2,-1,0,-3
20,54,64,31,4,60.0,2.0,105,10,2,1,2,2,2,1,-1,-4
21,56,64,31,4,63.0,1.0,95,10,2,1,2,2,7,4,0,-4
22,59,67,33,7,66.0,1.0,105,11,5,3,5,4,0,0,1,-3
23,62,64,31,4,69.0,1.0,95,11,2,1,2,2,0,0,-1,-4
24,65,62,30,2,72.0,2.0,105,12,0,0,0,1,1,1,-1,-5
25,67,73,36,1,75.0,1.0,95,12,11,6,11,7,-1,-1,1,-4
26,70,69,34,9,78.0,1.0,105,13,7,4,7,5,3,2,-1,-5
27,73,69,34,9,81.0,1.0,95,13,7,4,7,5,-2,-1,0,-5
28,76,64,31,4,84.0,2.0,105,14,2,1,2,2,2,1,-1,-6
29,78,64,31,4,87.0,1.0,95,14,2,1,2,2,7,4,0,-6
30,81,67,33,7,90.0,1.0,105,15,5,3,5,4,0,0,1,-5
31,84,62,30,2,93.0,1.0,95,15,0,0,0,1,-2,-1,-1,-6
32,87,59,28,11,96.0,3.0,105,16,-3,-2,9,6,-3,-2,-1,-7
33,88,59,28,11,99.0,1.0,95,16,-3,-2,9,6,0,0,0,-7
34,91,67,33,7,102.0,3.0,105,17,5,3,5,4,8,5,1,-6
35,92,67,33,7,105.0,1.0,95,17,5,3,5,4,0,0,0,-6
36,95,64,31,4,108.0,3.0,105,18,2,1,2,2,2,1,-1,-7
37,96,64,31,4,111.0,1.0,95,18,2,1,2,2,0,0,0,-7
38,99,69,34,9,114.0,3.0,105,19,7,4,7,5,5,3,1,-6
39,100,69,34,9,117.0,1.0,95,19,7,4,7,5,0,0,0,-6
40,103,71,35,11,120.0,3.0,105,20,9,5,9,6,-2,-1,1,-5
41,104,71,35,11,123.0,1.0,95,20,9,5,9,6,0,0,0,-5
42,107,79,40,7,126.0,3.0,105,21,17,10,5,4,8,5,1,-4
43,108,79,40,7,129.0,1.0,95,21,17,10,5,4,0,0,0,-4
44,111,73,36,1,132.0,1.0,105,22,11,6,11,7,-3,-2,-1,-5
45,114,74,37,2,135.0,1.0,95,22,12,7,0,1,5,3,1,-4
46,117,69,34,9,138.0,1.0,105,23,7,4,7,5,-4,-2,-1,-5
47,120,67,33,7,141.0,1.0,95,23,5,3,5,4,-2,-1,-1,-6
48,123,59,28,11,144.0,1.0,105,24,-3,-2,9,6,-3,-2,-1,-7
49,126,55,26,7,147.0,1.0,95,24,-7,-4,5,4,0,0,-1,-8
50,129,59,28,11,150.0,0.5,105,25,-3,-2,9,6,4,2,1,-7
51,133,62,30,2,153.0,1.0,95,25,0,0,0,1,1,1,1,-6
52,136,64,31,4,156.0,1.0,105,26,2,1,2,2,-2,-1,1,-5
53,139,57,27,9,159.0,1.0,95,26,-5,-3,7,5,0,0,-1,-6
54,142,64,31,4,162.0,1.0,105,27,2,1,2,2,7,4,1,-5
55,145,64,31,4,165.0,1.0,95,27,2,1,2,2,0,0,0,-5
56,148,59,28,11,168.0,3.0,105,28,-3,-2,9,6,-2,-1,-1,-6
57,149,59,28,11,171.0,1.0,95,28,-3,-2,9,6,0,0,0,-6
58,152,61,29,1,174.0,1.0,105,29,-1,-1,11,7,2,1,1,-5
59,155,62,30,2,177.0,1.0,95,29,0,0,0,1,1,1,1,-4
60,158,64,31,4,180.0,1.0,105,30,2,1,2,2,-2,-1,1,-3
61,161,57,27,9,183.0,1.0,95,30,-5,-3,7,5,0,0,-1,-4
62,164,64,31,4,186.0,1.0,105,31,2,1,2,2,7,4,1,-3
63,165,64,31,4,189.0,1.0,95,31,2,1,2,2,0,0,0,-3
64,168,58,28,10,192.0,1.0,105,32,-4,-2,8,6,-2,-1,-1,-4
65,171,70,35,10,195.0,1.0,95,32,8,5,8,6,5,3,1,-3
66,174,60,29,0,198.0,1.0,105,33,-2,-1,10,7,-2,-1,-1,-4
67,177,72,36,0,201.0,1.0,95,33,10,6,10,7,5,3,1,-3
68,180,74,37,2,204.0,3.0,105,34,12,7,0,1,2,1,1,-2
69,181,74,37,2,207.0,1.0,95,34,12,7,0,1,0,0,0,-2
70,184,76,38,4,210.0,1.0,105,35,14,8,2,2,-1,-1,1,-1
71,187,74,37,2,213.0,3.0,95,35,12,7,0,1,2,1,-1,-2
72,188,58,28,10,216.0,1.0,105,36,-4,-2,8,6,-16,-9,-1,-3
73,191,70,35,10,219.0,1.0,95,36,8,5,8,6,5,3,1,-2
74,194,60,29,0,222.0,1.0,105,37,-2,-1,10,7,-2,-1,-1,-3
75,197,72,36,0,225.0,1.0,95,37,10,6,10,7,5,3,1,-2
76,200,74,37,2,228.0,3.0,105,38,12,7,0,1,2,1,1,-1
77,201,74,37,2,231.0,1.0,95,38,12,7,0,1,0,0,0,-1
78,204,74,37,2,234.0,2.0,105,39,12,7,0,1,5,3,0,-1
79,208,58,28,10,240.0,1.0,105,40,-4,-2,8,6,-11,-6,-1,-2
80,211,70,35,10,243.0,1.0,95,40,8,5,8,6,5,3,1,-1
81,214,60,29,0,246.0,1.0,105,41,-2,-1,10,7,-2,-1,-1,-2
82,217,72,36,0,249.0,1.0,95,41,10,6,10,7,5,3,1,-1
83,220,74,37,2,252.0,3.0,105,42,12,7,0,1,2,1,1,0
84,221,81,41,9,255.0,1.0,95,42,19,11,7,5,7,4,1,1
85,224,77,39,5,258.0,1.0,105,43,15,9,3,3,-2,-1,-1,0
86,227,72,36,0,261.0,1.0,95,43,10,6,10,7,-2,-1,-1,-1
87,230,58,28,10,264.0,1.0,105,44,-4,-2,8,6,-9,-5,-1,-2
88,233,70,35,10,267.0,1.0,95,44,8,5,8,6,5,3,1,-1
89,236,60,29,0,270.0,1.0,105,45,-2,-1,10,7,-2,-1,-1,-2
90,239,72,36,0,273.0,1.0,95,45,10,6,10,7,5,3,1,-1
91,242,74,37,2,276.0,3.0,105,46,12,7,0,1,2,1,1,0
92,243,74,37,2,279.0,1.0,95,46,12,7,0,1,0,0,0,0
93,246,74,37,2,282.0,1.0,105,47,12,7,0,1,5,3,0,0
94,247,69,34,9,285.0,1.0,95,47,7,4,7,5,-5,-3,-1,-1
