,index,midi_note_num,diatonic_note_num,chromatic_pitch_class,onset,duration,velocity,bar_count,relative_chromatic_pitch,relative_diatonic_pitch,chromatic_scale_degree,diatonic_scale_degree,chromatic_interval,diatonic_interval,parsons_code,parsons_cumsum
0,0,74,37,2,0.0,2.0,105,0,7,4,7,5,0,0,0,0
1,3,74,37,2,4.0,1.0,95,0,7,4,7,5,-4,-2,0,0
2,8,74,37,2,8.0,1.0,105,1,7,4,7,5,2,1,0,0
3,14,72,36,0,12.0,2.0,95,1,5,3,5,4,1,1,-1,-1
4,17,69,34,9,16.0,1.0,105,2,2,1,2,2,2,1,-1,-2
5,21,74,37,2,20.0,2.0,95,2,7,4,7,5,1,1,1,-1
6,24,69,34,9,24.0,0.67,105,3,2,1,2,2,-4,-2,-1,-2
7,29,72,36,0,28.0,1.0,95,3,5,3,5,4,-2,-1,1,-1
8,33,74,37,2,32.0,2.0,105,4,7,4,7,5,2,1,1,0
9,36,74,37,2,36.0,1.0,95,4,7,4,7,5,-4,-2,0,0
10,41,74,37,2,40.0,1.0,105,5,7,4,7,5,2,1,0,0
11,47,72,36,0,44.0,2.0,95,5,5,3,5,4,1,1,-1,-1
12,50,69,34,9,48.0,1.0,105,6,2,1,2,2,2,1,-1,-2
13,54,74,37,2,52.0,2.0,95,6,7,4,7,5,1,1,1,-1
14,57,69,34,9,56.0,0.67,105,7,2,1,2,2,-4,-2,-1,-2
15,62,72,36,0,60.0,1.0,95,7,5,3,5,4,-2,-1,1,-1
16,66,71,35,11,64.0,1.0,105,8,4,2,4,3,-1,-1,-1,-2
17,70,62,30,2,68.0,1.0,95,8,-5,-3,7,5,-5,-3,-1,-3
18,74,71,35,11,72.0,1.0,105,9,4,2,4,3,-1,-1,1,-2
19,78,72,36,0,76.0,1.0,95,9,5,3,5,4,5,3,1,-1
20,82,71,35,11,80.0,1.0,105,10,4,2,4,3,-1,-1,-1,-2
21,86,62,30,2,84.0,1.0,95,10,-5,-3,7,5,-5,-3,-1,-3
22,90,69,34,9,88.0,0.67,105,11,2,1,2,2,2,1,1,-2
23,95,72,36,0,92.0,1.0,95,11,5,3,5,4,-2,-1,1,-1
24,99,71,35,11,96.0,1.0,105,12,4,2,4,3,-1,-1,-1,-2
25,103,62,30,2,100.0,1.0,95,12,-5,-3,7,5,-5,-3,-1,-3
26,107,71,35,11,104.0,1.0,105,13,4,2,4,3,-1,-1,1,-2
27,111,72,36,0,108.0,1.0,95,13,5,3,5,4,5,3,1,-1
28,115,71,35,11,112.0,1.0,105,14,4,2,4,3,-1,-1,-1,-2
29,119,62,30,2,116.0,1.0,95,14,-5,-3,7,5,-5,-3,-1,-3
30,123,69,34,9,120.0,0.67,105,15,2,1,2,2,2,1,1,-2
31,128,72,36,0,124.0,1.0,95,15,5,3,5,4,-2,-1,1,-1
32,132,79,40,7,128.0,2.0,105,16,12,7,0,1,1,1,1,0
33,135,81,41,9,132.0,1.0,95,16,14,8,2,2,2,1,1,1
34,139,81,41,9,136.0,0.5,105,17,14,8,2,2,2,1,0,1
35,143,74,37,2,140.0,3.0,95,17,7,4,7,5,-5,-3,-1,0
36,145,78,39,6,144.0,2.0,105,18,11,6,11,7,2,1,1,1
37,148,79,40,7,148.0,1.0,95,18,12,7,0,1,1,1,1,2
38,152,79,40,7,152.0,0.5,105,19,12,7,0,1,1,1,0,2
39,156,74,37,2,156.0,1.0,95,19,7,4,7,5,-4,-2,-1,1
40,160,79,40,7,160.0,2.0,105,20,12,7,0,1,5,3,1,2
41,163,81,41,9,164.0,1.0,95,20,14,8,2,2,2,1,1,3
42,167,81,41,9,168.0,0.5,105,21,14,8,2,2,2,1,0,3
43,171,74,37,2,172.0,3.0,95,21,7,4,7,5,-5,-3,-1,2
44,173,79,40,7,176.0,0.5,105,22,12,7,0,1,3,2,1,3
45,177,79,40,7,180.0,1.0,95,22,12,7,0,1,1,1,0,3
46,181,78,39,6,184.0,1.0,105,23,11,6,11,7,2,1,-1,2
47,187,72,36,0,188.0,1.0,95,23,5,3,5,4,-2,-1,-1,1
48,191,71,35,11,192.0,2.0,105,24,4,2,4,3,-1,-1,-1,0
49,194,71,35,11,196.0,1.0,95,24,4,2,4,3,-3,-2,0,0
50,198,71,35,11,200.0,1.0,105,25,4,2,4,3,2,1,0,0
51,204,69,34,9,204.0,2.0,95,25,2,1,2,2,2,1,-1,-1
52,207,66,32,6,208.0,1.0,105,26,-1,-1,11,7,2,1,-1,-2
53,211,71,35,11,212.0,2.0,95,26,4,2,4,3,2,1,1,-1
54,214,66,32,6,216.0,1.0,105,27,-1,-1,11,7,-3,-2,-1,-2
55,218,69,34,9,220.0,1.0,95,27,2,1,2,2,-2,-1,1,-1
56,222,79,40,7,224.0,2.0,105,28,12,7,0,1,10,6,1,0
57,225,81,41,9,228.0,1.0,95,28,14,8,2,2,2,1,1,1
58,229,81,41,9,232.0,0.5,105,29,14,8,2,2,2,1,0,1
59,233,74,37,2,236.0,3.0,95,29,7,4,7,5,-5,-3,-1,0
60,235,71,35,11,240.0,2.0,105,30,4,2,4,3,-5,-3,-1,-1
61,238,71,35,11,244.0,1.0,95,30,4,2,4,3,-3,-2,0,-1
62,242,71,35,11,248.0,1.0,105,31,4,2,4,3,2,1,0,-1
63,248,69,34,9,252.0,2.0,95,31,2,1,2,2,2,1,-1,-2
64,251,66,32,6,256.0,1.0,105,32,-1,-1,11,7,2,1,-1,-3
65,255,71,35,11,260.0,2.0,95,32,4,2,4,3,2,1,1,-2
66,258,66,32,6,264.0,1.0,105,33,-1,-1,11,7,-3,-2,-1,-3
67,262,69,34,9,268.0,1.0,95,33,2,1,2,2,-2,-1,1,-2
68,266,67,33,7,272.0,1.0,105,34,0,0,0,1,-2,-1,-1,-3
69,270,59,28,11,276.0,1.0,95,34,-8,-5,4,3,-5,-3,-1,-4
70,274,67,33,7,280.0,1.0,105,35,0,0,0,1,-2,-1,1,-3
71,278,69,34,9,284.0,1.0,95,35,2,1,2,2,5,3,1,-2
72,282,67,33,7,288.0,1.0,105,36,0,0,0,1,-2,-1,-1,-3
73,286,59,28,11,292.0,1.0,95,36,-8,-5,4,3,-5,-3,-1,-4
74,290,66,32,6,296.0,1.0,105,37,-1,-1,11,7,2,1,1,-3
75,294,69,34,9,300.0,1.0,95,37,2,1,2,2,-2,-1,1,-2
76,298,67,33,7,304.0,1.0,105,38,0,0,0,1,-2,-1,-1,-3
77,302,59,28,11,308.0,1.0,95,38,-8,-5,4,3,-5,-3,-1,-4
78,306,67,33,7,312.0,1.0,105,39,0,0,0,1,-2,-1,1,-3
79,310,69,34,9,316.0,1.0,95,39,2,1,2,2,5,3,1,-2
80,314,67,33,7,320.0,1.0,105,40,0,0,0,1,-2,-1,-1,-3
81,318,59,28,11,324.0,1.0,95,40,-8,-5,4,3,-5,-3,-1,-4
82,322,66,32,6,328.0,1.0,105,41,-1,-1,11,7,2,1,1,-3
83,326,69,34,9,332.0,1.0,95,41,2,1,2,2,-2,-1,1,-2
84,330,76,38,4,336.0,2.0,105,42,9,5,9,6,1,0,1,-1
85,333,78,39,6,340.0,1.0,95,42,11,6,11,7,2,1,1,0
86,337,78,39,6,344.0,0.5,105,43,11,6,11,7,2,1,0,0
87,341,71,35,11,348.0,3.0,95,43,4,2,4,3,-5,-3,-1,-1
88,343,74,37,2,352.0,2.0,105,44,7,4,7,5,2,1,1,0
89,346,76,38,4,356.0,1.0,95,44,9,5,9,6,2,1,1,1
90,350,76,38,4,360.0,0.5,105,45,9,5,9,6,2,1,0,1
91,354,71,35,11,364.0,1.0,95,45,4,2,4,3,-3,-2,-1,0
92,358,76,38,4,368.0,2.0,105,46,9,5,9,6,5,3,1,1
93,361,78,39,6,372.0,1.0,95,46,11,6,11,7,2,1,1,2
94,365,78,39,6,376.0,0.5,105,47,11,6,11,7,2,1,0,2
95,369,71,35,11,380.0,3.0,95,47,4,2,4,3,-5,-3,-1,1
96,371,76,38,4,384.0,0.5,105,48,9,5,9,6,4,2,1,2
97,375,76,38,4,388.0,1.0,95,48,9,5,9,6,2,1,0,2
98,379,74,37,2,392.0,1.0,105,49,7,4,7,5,2,1,-1,1
99,385,69,34,9,396.0,1.0,95,49,2,1,2,2,-2,-1,-1,0
100,389,69,34,9,400.0,2.0,105,50,2,1,2,2,0,0,0,0
101,392,69,34,9,404.0,1.0,95,50,2,1,2,2,-3,-2,0,0
102,397,69,34,9,408.0,2.0,105,51,2,1,2,2,2,1,0,0
103,400,67,33,7,412.0,2.0,95,51,0,0,0,1,1,1,-1,-1
104,403,64,31,4,416.0,1.0,105,52,-3,-2,9,6,2,1,-1,-2
105,407,69,34,9,420.0,2.0,95,52,2,1,2,2,2,1,1,-1
106,410,64,31,4,424.0,0.67,105,53,-3,-2,9,6,-3,-2,-1,-2
107,415,67,33,7,428.0,1.0,95,53,0,0,0,1,-2,-1,1,-1
108,419,76,38,4,432.0,2.0,105,54,9,5,9,6,9,5,1,0
109,422,78,39,6,436.0,1.0,95,54,11,6,11,7,2,1,1,1
110,426,78,39,6,440.0,0.5,105,55,11,6,11,7,2,1,0,1
111,430,71,35,11,444.0,3.0,95,55,4,2,4,3,-5,-3,-1,0
112,432,69,34,9,448.0,2.0,105,56,2,1,2,2,-3,-2,-1,-1
113,435,69,34,9,452.0,1.0,95,56,2,1,2,2,-3,-2,0,-1
114,440,69,34,9,456.0,2.0,105,57,2,1,2,2,2,1,0,-1
115,443,67,33,7,460.0,2.0,95,57,0,0,0,1,1,1,-1,-2
116,446,64,31,4,464.0,1.0,105,58,-3,-2,9,6,2,1,-1,-3
117,450,69,34,9,468.0,2.0,95,58,2,1,2,2,2,1,1,-2
118,453,64,31,4,472.0,0.67,105,59,-3,-2,9,6,-3,-2,-1,-3
119,458,67,33,7,476.0,1.0,95,59,0,0,0,1,-2,-1,1,-2
120,462,66,32,6,480.0,1.0,105,60,-1,-1,11,7,-1,-1,-1,-3
121,466,57,27,9,484.0,1.0,95,60,-10,-6,2,2,-5,-3,-1,-4
122,470,66,32,6,488.0,1.0,105,61,-1,-1,11,7,-1,-1,1,-3
123,474,67,33,7,492.0,1.0,95,61,0,0,0,1,5,3,1,-2
124,478,66,32,6,496.0,1.0,105,62,-1,-1,11,7,-1,-1,-1,-3
125,482,57,27,9,500.0,1.0,95,62,-10,-6,2,2,-5,-3,-1,-4
126,486,64,31,4,504.0,0.67,105,63,-3,-2,9,6,2,1,1,-3
127,491,67,33,7,508.0,1.0,95,63,0,0,0,1,-2,-1,1,-2
128,495,66,32,6,512.0,1.0,105,64,-1,-1,11,7,-1,-1,-1,-3
129,499,57,27,9,516.0,1.0,95,64,-10,-6,2,2,-5,-3,-1,-4
130,503,66,32,6,520.0,1.0,105,65,-1,-1,11,7,-1,-1,1,-3
131,507,67,33,7,524.0,1.0,95,65,0,0,0,1,5,3,1,-2
132,511,66,32,6,528.0,1.0,105,66,-1,-1,11,7,-1,-1,-1,-3
133,515,57,27,9,532.0,1.0,95,66,-10,-6,2,2,-5,-3,-1,-4
134,519,64,31,4,536.0,0.67,105,67,-3,-2,9,6,2,1,1,-3
135,524,67,33,7,540.0,1.0,95,67,0,0,0,1,-2,-1,1,-2
136,528,74,37,2,544.0,2.0,105,68,7,4,7,5,1,1,1,-1
137,531,76,38,4,548.0,1.0,95,68,9,5,9,6,2,1,1,0
138,535,76,38,4,552.0,0.5,105,69,9,5,9,6,2,1,0,0
139,539,69,34,9,556.0,3.0,95,69,2,1,2,2,-5,-3,-1,-1
140,541,72,36,0,560.0,2.0,105,70,5,3,5,4,1,1,1,0
141,544,74,37,2,564.0,1.0,95,70,7,4,7,5,2,1,1,1
142,548,74,37,2,568.0,0.5,105,71,7,4,7,5,2,1,0,1
143,552,69,34,9,572.0,1.0,95,71,2,1,2,2,-3,-2,-1,0
144,556,74,37,2,576.0,2.0,105,72,7,4,7,5,5,3,1,1
145,559,76,38,4,580.0,1.0,95,72,9,5,9,6,2,1,1,2
146,563,76,38,4,584.0,0.5,105,73,9,5,9,6,2,1,0,2
147,567,69,34,9,588.0,3.0,95,73,2,1,2,2,-5,-3,-1,1
148,569,74,37,2,592.0,0.5,105,74,7,4,7,5,3,2,1,2
149,573,74,37,2,596.0,1.0,95,74,7,4,7,5,2,1,0,2
150,577,72,36,0,600.0,1.0,105,75,5,3,5,4,1,1,-1,1
151,583,67,33,7,604.0,1.0,95,75,0,0,0,1,-2,-1,-1,0
