,index,midi_note_num,diatonic_note_num,chromatic_pitch_class,onset,duration,velocity,bar_count,relative_chromatic_pitch,relative_diatonic_pitch,chromatic_scale_degree,diatonic_scale_degree,chromatic_interval,diatonic_interval,parsons_code,parsons_cumsum
0,2,62,30,2,2.0,1.33,105,0,-8,-5,4,3,0,0,0,0
1,6,72,36,0,6.0,1.33,95,0,2,1,2,2,-2,-1,1,1
2,10,70,35,10,10.0,1.33,105,1,0,0,0,1,-2,-1,-1,0
3,14,78,39,6,14.0,1.33,95,1,8,4,8,5,-1,-1,1,1
4,18,77,39,5,18.0,1.33,105,2,7,4,7,5,5,3,-1,0
5,22,69,34,9,22.0,1.33,95,2,-1,-1,11,7,-3,-2,-1,-1
6,26,62,30,2,26.0,1.33,105,3,-8,-5,4,3,-3,-2,-1,-2
7,30,72,36,0,30.0,2.0,95,3,2,1,2,2,-2,-1,1,-1
8,33,62,30,2,34.0,1.33,105,4,-8,-5,4,3,-1,-1,-1,-2
9,37,72,36,0,38.0,1.33,95,4,2,1,2,2,-2,-1,1,-1
10,41,70,35,10,42.0,1.33,105,5,0,0,0,1,-2,-1,-1,-2
11,45,78,39,6,46.0,1.33,95,5,8,4,8,5,-1,-1,1,-1
12,49,77,39,5,50.0,1.33,105,6,7,4,7,5,5,3,-1,-2
13,53,69,34,9,54.0,1.33,95,6,-1,-1,11,7,-3,-2,-1,-3
14,57,70,35,10,58.0,2.0,105,7,0,0,0,1,1,1,1,-2
15,59,70,35,10,62.0,2.0,95,7,0,0,0,1,-4,-2,0,-2
16,62,62,30,2,66.0,1.33,105,8,-8,-5,4,3,-1,-1,-1,-3
17,66,72,36,0,70.0,1.33,95,8,2,1,2,2,-2,-1,1,-2
18,70,70,35,10,74.0,1.33,105,9,0,0,0,1,-2,-1,-1,-3
19,74,78,39,6,78.0,1.33,95,9,8,4,8,5,-1,-1,1,-2
20,78,77,39,5,82.0,1.33,105,10,7,4,7,5,5,3,-1,-3
21,82,69,34,9,86.0,1.33,95,10,-1,-1,11,7,-3,-2,-1,-4
22,86,62,30,2,90.0,1.33,105,11,-8,-5,4,3,-3,-2,-1,-5
23,90,72,36,0,94.0,2.0,95,11,2,1,2,2,-2,-1,1,-4
24,93,62,30,2,98.0,1.33,105,12,-8,-5,4,3,-1,-1,-1,-5
25,97,72,36,0,102.0,1.33,95,12,2,1,2,2,-2,-1,1,-4
26,101,70,35,10,106.0,1.33,105,13,0,0,0,1,-2,-1,-1,-5
27,105,78,39,6,110.0,1.33,95,13,8,4,8,5,-1,-1,1,-4
28,109,77,39,5,114.0,1.33,105,14,7,4,7,5,5,3,-1,-5
29,113,69,34,9,118.0,1.33,95,14,-1,-1,11,7,-3,-2,-1,-6
30,117,70,35,10,122.0,2.0,105,15,0,0,0,1,1,1,1,-5
31,119,70,35,10,126.0,2.0,95,15,0,0,0,1,-4,-2,0,-5
32,122,77,39,5,130.0,1.33,105,16,7,4,7,5,0,0,1,-4
33,126,69,34,9,134.0,2.0,95,16,-1,-1,11,7,-3,-2,-1,-5
34,129,77,39,5,138.0,1.33,105,17,7,4,7,5,0,0,1,-4
35,133,62,30,2,142.0,2.0,95,17,-8,-5,4,3,-3,-2,-1,-5
36,136,77,39,5,146.0,1.33,105,18,7,4,7,5,0,0,1,-4
37,140,69,34,9,150.0,1.33,95,18,-1,-1,11,7,-3,-2,-1,-5
38,144,70,35,10,154.0,1.33,105,19,0,0,0,1,1,1,1,-4
39,148,76,38,4,158.0,1.33,95,19,6,3,6,4,1,0,1,-3
40,152,77,39,5,162.0,1.33,105,20,7,4,7,5,0,0,1,-2
41,156,69,34,9,166.0,2.0,95,20,-1,-1,11,7,-3,-2,-1,-3
42,159,77,39,5,170.0,1.33,105,21,7,4,7,5,0,0,1,-2
43,163,62,30,2,174.0,2.0,95,21,-8,-5,4,3,-3,-2,-1,-3
44,166,77,39,5,178.0,1.33,105,22,7,4,7,5,0,0,1,-2
45,170,69,34,9,182.0,1.33,95,22,-1,-1,11,7,-3,-2,-1,-3
46,174,70,35,10,186.0,2.0,105,23,0,0,0,1,1,1,1,-2
47,176,70,35,10,190.0,2.0,95,23,0,0,0,1,-4,-2,0,-2
48,179,77,39,5,194.0,1.33,105,24,7,4,7,5,0,0,1,-1
49,183,69,34,9,198.0,2.0,95,24,-1,-1,11,7,-3,-2,-1,-2
50,186,77,39,5,202.0,1.33,105,25,7,4,7,5,0,0,1,-1
51,190,62,30,2,206.0,2.0,95,25,-8,-5,4,3,-3,-2,-1,-2
52,193,77,39,5,210.0,1.33,105,26,7,4,7,5,0,0,1,-1
53,197,69,34,9,214.0,1.33,95,26,-1,-1,11,7,-3,-2,-1,-2
54,201,70,35,10,218.0,1.33,105,27,0,0,0,1,1,1,1,-1
55,205,76,38,4,222.0,1.33,95,27,6,3,6,4,1,0,1,0
56,209,77,39,5,226.0,1.33,105,28,7,4,7,5,0,0,1,1
57,213,69,34,9,230.0,2.0,95,28,-1,-1,11,7,-3,-2,-1,0
58,216,77,39,5,234.0,1.33,105,29,7,4,7,5,0,0,1,1
59,220,62,30,2,238.0,2.0,95,29,-8,-5,4,3,-3,-2,-1,0
60,223,77,39,5,242.0,1.33,105,30,7,4,7,5,0,0,1,1
61,227,69,34,9,246.0,1.33,95,30,-1,-1,11,7,-3,-2,-1,0
62,231,70,35,10,250.0,2.0,105,31,0,0,0,1,1,1,1,1
63,233,70,35,10,254.0,2.0,95,31,0,0,0,1,-4,-2,0,1
64,236,62,30,2,258.0,1.33,105,32,-8,-5,4,3,-1,-1,-1,0
65,240,77,39,5,262.0,1.33,95,32,7,4,7,5,3,2,1,1
66,244,62,30,2,266.0,1.33,105,33,-8,-5,4,3,-3,-2,-1,0
67,248,77,39,5,270.0,2.0,95,33,7,4,7,5,3,2,1,1
68,251,77,39,5,274.0,1.33,105,34,7,4,7,5,0,0,0,1
69,255,69,34,9,278.0,1.33,95,34,-1,-1,11,7,-3,-2,-1,0
70,259,77,39,5,282.0,1.33,105,35,7,4,7,5,1,1,1,1
71,263,62,30,2,286.0,2.0,95,35,-8,-5,4,3,-3,-2,-1,0
72,266,62,30,2,290.0,1.33,105,36,-8,-5,4,3,-1,-1,0,0
73,270,77,39,5,294.0,1.33,95,36,7,4,7,5,3,2,1,1
74,274,62,30,2,298.0,1.33,105,37,-8,-5,4,3,-3,-2,-1,0
75,278,77,39,5,302.0,2.0,95,37,7,4,7,5,3,2,1,1
76,281,77,39,5,306.0,1.33,105,38,7,4,7,5,0,0,0,1
77,285,69,34,9,310.0,1.33,95,38,-1,-1,11,7,-3,-2,-1,0
78,289,70,35,10,314.0,2.0,105,39,0,0,0,1,-4,-2,1,1
79,291,70,35,10,318.0,2.0,95,39,0,0,0,1,0,0,0,1
80,294,62,30,2,322.0,1.33,105,40,-8,-5,4,3,-1,-1,-1,0
81,298,77,39,5,326.0,1.33,95,40,7,4,7,5,3,2,1,1
82,302,62,30,2,330.0,1.33,105,41,-8,-5,4,3,-3,-2,-1,0
83,306,77,39,5,334.0,2.0,95,41,7,4,7,5,3,2,1,1
84,309,77,39,5,338.0,1.33,105,42,7,4,7,5,0,0,0,1
85,313,69,34,9,342.0,1.33,95,42,-1,-1,11,7,-3,-2,-1,0
86,317,77,39,5,346.0,1.33,105,43,7,4,7,5,1,1,1,1
87,321,62,30,2,350.0,2.0,95,43,-8,-5,4,3,-3,-2,-1,0
88,324,62,30,2,354.0,1.33,105,44,-8,-5,4,3,-1,-1,0,0
89,328,77,39,5,358.0,1.33,95,44,7,4,7,5,3,2,1,1
90,332,62,30,2,362.0,1.33,105,45,-8,-5,4,3,-3,-2,-1,0
91,336,77,39,5,366.0,2.0,95,45,7,4,7,5,3,2,1,1
92,339,77,39,5,370.0,1.33,105,46,7,4,7,5,0,0,0,1
93,343,69,34,9,374.0,1.33,95,46,-1,-1,11,7,-3,-2,-1,0
94,347,70,35,10,378.0,2.0,105,47,0,0,0,1,-4,-2,1,1
95,349,70,35,10,382.0,2.0,95,47,0,0,0,1,0,0,0,1
