,index,midi_note_num,diatonic_note_num,chromatic_pitch_class,onset,duration,velocity,bar_count,relative_chromatic_pitch,relative_diatonic_pitch,chromatic_scale_degree,diatonic_scale_degree,chromatic_interval,diatonic_interval,parsons_code,parsons_cumsum
0,1,83,42,11,1.0,2.0,105,0,19,11,7,5,0,0,0,0
1,3,81,41,9,4.0,2.0,95,0,17,10,5,4,5,3,-1,-1
2,5,79,40,7,7.0,2.0,95,0,15,9,3,3,3,2,-1,-2
3,7,78,39,6,10.0,1.0,105,1,14,8,2,2,2,1,-1,-3
4,10,76,38,4,13.0,1.0,95,1,12,7,0,1,-2,-1,-1,-4
5,13,78,39,6,16.0,1.0,95,1,14,8,2,2,2,1,1,-3
6,16,81,41,9,19.0,2.0,105,2,17,10,5,4,3,2,1,-2
7,18,79,40,7,22.0,2.0,95,2,15,9,3,3,1,1,-1,-3
8,20,76,38,4,25.0,2.0,95,2,12,7,0,1,-2,-1,-1,-4
9,22,76,38,4,28.0,2.0,105,3,12,7,0,1,2,1,0,-4
10,24,79,40,7,31.0,2.0,95,3,15,9,3,3,1,1,1,-3
11,26,76,38,4,34.0,2.0,95,3,12,7,0,1,-2,-1,-1,-4
12,28,83,42,11,37.0,2.0,105,4,19,11,7,5,9,5,1,-3
13,30,81,41,9,40.0,2.0,95,4,17,10,5,4,5,3,-1,-4
14,32,79,40,7,43.0,2.0,95,4,15,9,3,3,3,2,-1,-5
15,34,78,39,6,46.0,1.0,105,5,14,8,2,2,2,1,-1,-6
16,37,76,38,4,49.0,1.0,95,5,12,7,0,1,-2,-1,-1,-7
17,40,78,39,6,52.0,1.0,95,5,14,8,2,2,2,1,1,-6
18,43,81,41,9,55.0,2.0,105,6,17,10,5,4,3,2,1,-5
19,45,79,40,7,58.0,2.0,95,6,15,9,3,3,1,1,-1,-6
20,47,76,38,4,61.0,2.0,95,6,12,7,0,1,-2,-1,-1,-7
21,49,76,38,4,64.0,1.0,105,7,12,7,0,1,2,1,0,-7
22,50,76,38,4,67.0,3.0,95,7,12,7,0,1,0,0,0,-7
23,51,76,38,4,70.0,2.0,95,7,12,7,0,1,0,0,0,-7
24,53,83,42,11,73.0,2.0,105,8,19,11,7,5,12,7,1,-6
25,55,81,41,9,76.0,2.0,95,8,17,10,5,4,5,3,-1,-7
26,57,79,40,7,79.0,2.0,95,8,15,9,3,3,3,2,-1,-8
27,59,78,39,6,82.0,1.0,105,9,14,8,2,2,2,1,-1,-9
28,62,76,38,4,85.0,1.0,95,9,12,7,0,1,-2,-1,-1,-10
29,65,78,39,6,88.0,1.0,95,9,14,8,2,2,2,1,1,-9
30,68,81,41,9,91.0,2.0,105,10,17,10,5,4,3,2,1,-8
31,70,79,40,7,94.0,2.0,95,10,15,9,3,3,1,1,-1,-9
32,72,76,38,4,97.0,2.0,95,10,12,7,0,1,-2,-1,-1,-10
33,74,76,38,4,100.0,2.0,105,11,12,7,0,1,2,1,0,-10
34,76,79,40,7,103.0,2.0,95,11,15,9,3,3,1,1,1,-9
35,78,76,38,4,106.0,2.0,95,11,12,7,0,1,-2,-1,-1,-10
36,80,83,42,11,109.0,2.0,105,12,19,11,7,5,9,5,1,-9
37,82,81,41,9,112.0,2.0,95,12,17,10,5,4,5,3,-1,-10
38,84,79,40,7,115.0,2.0,95,12,15,9,3,3,3,2,-1,-11
39,86,78,39,6,118.0,1.0,105,13,14,8,2,2,2,1,-1,-12
40,89,76,38,4,121.0,1.0,95,13,12,7,0,1,-2,-1,-1,-13
41,92,78,39,6,124.0,1.0,95,13,14,8,2,2,2,1,1,-12
42,95,81,41,9,127.0,2.0,105,14,17,10,5,4,3,2,1,-11
43,97,79,40,7,130.0,2.0,95,14,15,9,3,3,1,1,-1,-12
44,99,76,38,4,133.0,2.0,95,14,12,7,0,1,-2,-1,-1,-13
45,101,76,38,4,136.0,1.0,105,15,12,7,0,1,2,1,0,-13
46,102,76,38,4,139.0,3.0,95,15,12,7,0,1,0,0,0,-13
47,103,76,38,4,142.0,2.0,95,15,12,7,0,1,0,0,0,-13
48,105,79,40,7,145.0,2.0,105,16,15,9,3,3,8,5,1,-12
49,107,81,41,9,148.0,2.0,95,16,17,10,5,4,5,3,1,-11
50,109,83,42,11,151.0,2.0,95,16,19,11,7,5,7,4,1,-10
51,111,79,40,7,154.0,2.0,105,17,15,9,3,3,3,2,-1,-11
52,113,81,41,9,157.0,2.0,95,17,17,10,5,4,5,3,1,-10
53,115,83,42,11,160.0,2.0,95,17,19,11,7,5,7,4,1,-9
54,117,78,39,6,163.0,2.0,105,18,14,8,2,2,2,1,-1,-10
55,119,78,39,6,166.0,2.0,95,18,14,8,2,2,-1,-1,0,-10
56,121,74,37,2,169.0,2.0,95,18,10,6,10,7,-2,-1,-1,-11
57,123,78,39,6,172.0,2.0,105,19,14,8,2,2,2,1,1,-10
58,125,81,41,9,175.0,2.0,95,19,17,10,5,4,2,1,1,-9
59,127,78,39,6,178.0,2.0,95,19,14,8,2,2,-1,-1,-1,-10
60,129,79,40,7,181.0,2.0,105,20,15,9,3,3,5,3,1,-9
61,131,81,41,9,184.0,2.0,95,20,17,10,5,4,5,3,1,-8
62,133,83,42,11,187.0,2.0,95,20,19,11,7,5,7,4,1,-7
63,135,79,40,7,190.0,2.0,105,21,15,9,3,3,3,2,-1,-8
64,137,81,41,9,193.0,2.0,95,21,17,10,5,4,5,3,1,-7
65,139,83,42,11,196.0,2.0,95,21,19,11,7,5,7,4,1,-6
66,141,78,39,6,199.0,1.0,105,22,14,8,2,2,2,1,-1,-7
67,144,76,38,4,202.0,1.0,95,22,12,7,0,1,-2,-1,-1,-8
68,147,74,37,2,205.0,1.0,95,22,10,6,10,7,3,2,-1,-9
69,150,76,38,4,208.0,1.0,105,23,12,7,0,1,-2,-1,1,-8
70,151,76,38,4,211.0,3.0,95,23,12,7,0,1,0,0,0,-8
71,152,76,38,4,214.0,2.0,95,23,12,7,0,1,0,0,0,-8
72,154,79,40,7,217.0,2.0,105,24,15,9,3,3,5,3,1,-7
73,156,81,41,9,220.0,2.0,95,24,17,10,5,4,5,3,1,-6
74,158,83,42,11,223.0,2.0,95,24,19,11,7,5,7,4,1,-5
75,160,79,40,7,226.0,2.0,105,25,15,9,3,3,3,2,-1,-6
76,162,81,41,9,229.0,2.0,95,25,17,10,5,4,5,3,1,-5
77,164,83,42,11,232.0,2.0,95,25,19,11,7,5,7,4,1,-4
78,166,78,39,6,235.0,2.0,105,26,14,8,2,2,2,1,-1,-5
79,168,78,39,6,238.0,2.0,95,26,14,8,2,2,-1,-1,0,-5
80,170,74,37,2,241.0,2.0,95,26,10,6,10,7,-2,-1,-1,-6
81,172,78,39,6,244.0,2.0,105,27,14,8,2,2,2,1,1,-5
82,174,81,41,9,247.0,2.0,95,27,17,10,5,4,2,1,1,-4
83,176,78,39,6,250.0,2.0,95,27,14,8,2,2,-1,-1,-1,-5
84,178,79,40,7,253.0,2.0,105,28,15,9,3,3,5,3,1,-4
85,180,81,41,9,256.0,2.0,95,28,17,10,5,4,5,3,1,-3
86,182,83,42,11,259.0,2.0,95,28,19,11,7,5,7,4,1,-2
87,184,79,40,7,262.0,2.0,105,29,15,9,3,3,3,2,-1,-3
88,186,81,41,9,265.0,2.0,95,29,17,10,5,4,5,3,1,-2
89,188,83,42,11,268.0,2.0,95,29,19,11,7,5,7,4,1,-1
90,190,78,39,6,271.0,1.0,105,30,14,8,2,2,2,1,-1,-2
91,193,76,38,4,274.0,1.0,95,30,12,7,0,1,-2,-1,-1,-3
92,196,74,37,2,277.0,1.0,95,30,10,6,10,7,3,2,-1,-4
93,199,76,38,4,280.0,1.0,105,31,12,7,0,1,-2,-1,1,-3
94,200,76,38,4,283.0,6.0,95,31,12,7,0,1,0,0,0,-3
