,index,midi_note_num,diatonic_note_num,chromatic_pitch_class,onset,duration,velocity,bar_count,relative_chromatic_pitch,relative_diatonic_pitch,chromatic_scale_degree,diatonic_scale_degree,chromatic_interval,diatonic_interval,parsons_code,parsons_cumsum
0,0,71,35,11,0.0,2.0,105,0,0,0,0,1,0,0,0,0
1,2,78,39,6,3.0,1.0,95,0,7,4,7,5,0,0,1,1
2,5,76,38,4,6.0,1.0,105,1,5,3,5,4,2,1,-1,0
3,8,76,38,4,9.0,1.0,95,1,5,3,5,4,0,0,0,0
4,11,71,35,11,12.0,2.0,105,2,0,0,0,1,-2,-1,-1,-1
5,13,78,39,6,15.0,1.0,95,2,7,4,7,5,0,0,1,0
6,16,79,40,7,18.0,2.0,105,3,8,5,8,6,1,1,1,1
7,18,78,39,6,21.0,1.0,95,3,7,4,7,5,-1,-1,-1,0
8,21,71,35,11,24.0,2.0,105,4,0,0,0,1,-3,-2,-1,-1
9,23,78,39,6,27.0,1.0,95,4,7,4,7,5,0,0,1,0
10,26,76,38,4,30.0,1.0,105,5,5,3,5,4,2,1,-1,-1
11,29,76,38,4,33.0,1.0,95,5,5,3,5,4,0,0,0,-1
12,32,71,35,11,36.0,2.0,105,6,0,0,0,1,-2,-1,-1,-2
13,34,78,39,6,39.0,1.0,95,6,7,4,7,5,0,0,1,-1
14,37,81,41,9,42.0,2.0,105,7,10,6,10,7,3,2,1,0
15,39,78,39,6,45.0,1.0,95,7,7,4,7,5,-3,-2,-1,-1
16,42,71,35,11,48.0,2.0,105,8,0,0,0,1,-3,-2,-1,-2
17,44,78,39,6,51.0,1.0,95,8,7,4,7,5,0,0,1,-1
18,47,76,38,4,54.0,1.0,105,9,5,3,5,4,2,1,-1,-2
19,50,76,38,4,57.0,1.0,95,9,5,3,5,4,0,0,0,-2
20,53,71,35,11,60.0,2.0,105,10,0,0,0,1,-2,-1,-1,-3
21,55,78,39,6,63.0,1.0,95,10,7,4,7,5,0,0,1,-2
22,58,79,40,7,66.0,2.0,105,11,8,5,8,6,1,1,1,-1
23,60,78,39,6,69.0,1.0,95,11,7,4,7,5,-1,-1,-1,-2
24,63,71,35,11,72.0,2.0,105,12,0,0,0,1,-3,-2,-1,-3
25,65,78,39,6,75.0,1.0,95,12,7,4,7,5,0,0,1,-2
26,68,76,38,4,78.0,1.0,105,13,5,3,5,4,2,1,-1,-3
27,71,76,38,4,81.0,1.0,95,13,5,3,5,4,0,0,0,-3
28,74,71,35,11,84.0,2.0,105,14,0,0,0,1,-2,-1,-1,-4
29,76,78,39,6,87.0,1.0,95,14,7,4,7,5,0,0,1,-3
30,79,81,41,9,90.0,2.0,105,15,10,6,10,7,3,2,1,-2
31,81,78,39,6,93.0,1.0,95,15,7,4,7,5,-3,-2,-1,-3
32,84,69,34,9,96.0,1.0,105,16,-2,-1,10,7,-5,-3,-1,-4
33,87,74,37,2,99.0,1.0,95,16,3,2,3,3,1,1,1,-3
34,90,76,38,4,102.0,1.0,105,17,5,3,5,4,2,1,1,-2
35,93,74,37,2,105.0,1.0,95,17,3,2,3,3,1,1,-1,-3
36,96,71,35,11,108.0,1.0,105,18,0,0,0,1,2,1,-1,-4
37,99,76,38,4,111.0,1.0,95,18,5,3,5,4,2,1,1,-3
38,102,78,39,6,114.0,1.0,105,19,7,4,7,5,2,1,1,-2
39,105,76,38,4,117.0,1.0,95,19,5,3,5,4,2,1,-1,-3
40,108,73,36,1,120.0,1.0,105,20,2,1,2,2,0,0,-1,-4
41,111,78,39,6,123.0,1.0,95,20,7,4,7,5,2,1,1,-3
42,114,79,40,7,126.0,1.0,105,21,8,5,8,6,1,1,1,-2
43,117,78,39,6,129.0,1.0,95,21,7,4,7,5,2,1,-1,-3
44,120,73,36,1,132.0,1.0,105,22,2,1,2,2,-1,-1,-1,-4
45,123,73,36,1,135.0,1.0,95,22,2,1,2,2,-3,-2,0,-4
46,126,73,36,1,138.0,1.0,105,23,2,1,2,2,-3,-2,0,-4
47,129,81,41,9,141.0,1.0,95,23,10,6,10,7,5,3,1,-3
48,132,69,34,9,144.0,1.0,105,24,-2,-1,10,7,-4,-2,-1,-4
49,135,74,37,2,147.0,1.0,95,24,3,2,3,3,1,1,1,-3
50,138,76,38,4,150.0,1.0,105,25,5,3,5,4,2,1,1,-2
51,141,74,37,2,153.0,1.0,95,25,3,2,3,3,1,1,-1,-3
52,144,71,35,11,156.0,1.0,105,26,0,0,0,1,2,1,-1,-4
53,147,76,38,4,159.0,1.0,95,26,5,3,5,4,2,1,1,-3
54,150,78,39,6,162.0,1.0,105,27,7,4,7,5,2,1,1,-2
55,153,76,38,4,165.0,1.0,95,27,5,3,5,4,2,1,-1,-3
56,156,73,36,1,168.0,1.0,105,28,2,1,2,2,0,0,-1,-4
57,159,78,39,6,171.0,1.0,95,28,7,4,7,5,2,1,1,-3
58,162,79,40,7,174.0,1.0,105,29,8,5,8,6,1,1,1,-2
59,165,78,39,6,177.0,1.0,95,29,7,4,7,5,2,1,-1,-3
60,168,73,36,1,180.0,1.0,105,30,2,1,2,2,-1,-1,-1,-4
61,171,73,36,1,183.0,1.0,95,30,2,1,2,2,-3,-2,0,-4
62,174,73,36,1,186.0,1.0,105,31,2,1,2,2,-3,-2,0,-4
63,177,81,41,9,189.0,3.0,95,31,10,6,10,7,5,3,1,-3
64,178,66,32,6,192.0,1.0,105,32,-5,-3,7,5,-15,-9,-1,-4
65,181,66,32,6,195.0,1.0,95,32,-5,-3,7,5,0,0,0,-4
66,184,66,32,6,198.0,1.0,105,33,-5,-3,7,5,4,2,0,-4
67,187,66,32,6,201.0,1.0,95,33,-5,-3,7,5,0,0,0,-4
68,190,64,31,4,204.0,1.0,105,34,-7,-4,5,4,2,1,-1,-5
69,193,64,31,4,207.0,1.0,95,34,-7,-4,5,4,0,0,0,-5
70,196,69,34,9,210.0,1.0,105,35,-2,-1,10,7,2,1,1,-4
71,199,66,32,6,213.0,1.0,95,35,-5,-3,7,5,0,0,-1,-5
72,202,66,32,6,216.0,1.0,105,36,-5,-3,7,5,4,2,0,-5
73,205,66,32,6,219.0,1.0,95,36,-5,-3,7,5,0,0,0,-5
74,208,66,32,6,222.0,1.0,105,37,-5,-3,7,5,4,2,0,-5
75,211,66,32,6,225.0,1.0,95,37,-5,-3,7,5,0,0,0,-5
76,214,64,31,4,228.0,1.0,105,38,-7,-4,5,4,2,1,-1,-6
77,217,64,31,4,231.0,1.0,95,38,-7,-4,5,4,0,0,0,-6
78,220,69,34,9,234.0,1.0,105,39,-2,-1,10,7,2,1,1,-5
79,223,78,39,6,237.0,3.0,95,39,7,4,7,5,5,3,1,-4
80,224,66,32,6,240.0,1.0,105,40,-5,-3,7,5,-12,-7,-1,-5
81,227,66,32,6,243.0,1.0,95,40,-5,-3,7,5,0,0,0,-5
82,230,66,32,6,246.0,1.0,105,41,-5,-3,7,5,4,2,0,-5
83,233,66,32,6,249.0,1.0,95,41,-5,-3,7,5,0,0,0,-5
84,236,64,31,4,252.0,1.0,105,42,-7,-4,5,4,2,1,-1,-6
85,239,64,31,4,255.0,1.0,95,42,-7,-4,5,4,0,0,0,-6
86,242,69,34,9,258.0,1.0,105,43,-2,-1,10,7,2,1,1,-5
87,245,66,32,6,261.0,1.0,95,43,-5,-3,7,5,0,0,-1,-6
88,248,64,31,4,264.0,1.0,105,44,-7,-4,5,4,2,1,-1,-7
89,251,64,31,4,267.0,1.0,95,44,-7,-4,5,4,0,0,0,-7
90,254,69,34,9,270.0,1.0,105,45,-2,-1,10,7,2,1,1,-6
91,257,78,39,6,273.0,3.0,95,45,7,4,7,5,5,3,1,-5
92,258,79,40,7,276.0,1.0,105,46,8,5,8,6,1,1,1,-4
93,261,79,40,7,279.0,1.0,95,46,8,5,8,6,1,1,0,-4
94,264,74,37,2,282.0,1.0,105,47,3,2,3,3,-4,-2,-1,-5
95,267,78,39,6,285.0,1.0,95,47,7,4,7,5,4,2,1,-4
