,index,midi_note_num,diatonic_note_num,chromatic_pitch_class,onset,duration,velocity,bar_count,relative_chromatic_pitch,relative_diatonic_pitch,chromatic_scale_degree,diatonic_scale_degree,chromatic_interval,diatonic_interval,parsons_code,parsons_cumsum
0,1,71,35,11,1.0,1.0,105,0,0,0,0,1,0,0,0,0
1,2,78,39,6,2.0,1.0,95,0,7,4,7,5,7,4,1,1
2,3,76,38,4,3.0,1.0,95,0,5,3,5,4,-2,-1,-1,0
3,4,74,37,2,4.0,1.0,95,0,3,2,3,3,-2,-1,-1,-1
4,5,76,38,4,5.0,1.0,95,0,5,3,5,4,2,1,1,0
5,6,74,37,2,6.0,1.0,95,0,3,2,3,3,-2,-1,-1,-1
6,7,73,36,1,7.0,1.0,95,0,2,1,2,2,-1,-1,-1,-2
7,8,71,35,11,8.0,2.0,95,0,0,0,0,1,-2,-1,-1,-3
8,9,71,35,11,10.0,1.0,95,0,0,0,0,1,0,0,0,-3
9,10,69,34,9,11.0,1.0,95,0,-2,-1,10,7,-2,-1,-1,-4
10,11,71,35,11,12.0,1.0,105,1,0,0,0,1,2,1,1,-3
11,12,73,36,1,13.0,0.5,95,1,2,1,2,2,2,1,1,-2
12,14,69,34,9,14.0,0.5,95,1,-2,-1,10,7,-2,-1,-1,-3
13,16,74,37,2,15.0,1.0,95,1,3,2,3,3,3,2,1,-2
14,17,73,36,1,16.0,1.0,95,1,2,1,2,2,-1,-1,-1,-3
15,18,71,35,11,17.0,1.0,95,1,0,0,0,1,-2,-1,-1,-4
16,19,69,34,9,18.0,1.0,95,1,-2,-1,10,7,-2,-1,-1,-5
17,20,71,35,11,19.0,1.0,95,1,0,0,0,1,2,1,1,-4
18,21,73,36,1,20.0,0.5,95,1,2,1,2,2,2,1,1,-3
19,23,69,34,9,21.0,0.5,95,1,-2,-1,10,7,-2,-1,-1,-4
20,25,69,34,9,22.0,1.0,95,1,-2,-1,10,7,-2,-1,0,-4
21,26,71,35,11,23.0,1.0,105,2,0,0,0,1,2,1,1,-3
22,27,78,39,6,24.0,1.0,95,2,7,4,7,5,7,4,1,-2
23,28,76,38,4,25.0,1.0,95,2,5,3,5,4,-2,-1,-1,-3
24,29,74,37,2,26.0,1.0,95,2,3,2,3,3,-2,-1,-1,-4
25,30,76,38,4,27.0,1.0,95,2,5,3,5,4,2,1,1,-3
26,31,74,37,2,28.0,1.0,95,2,3,2,3,3,-2,-1,-1,-4
27,32,73,36,1,29.0,1.0,95,2,2,1,2,2,-1,-1,-1,-5
28,33,71,35,11,30.0,2.0,95,2,0,0,0,1,-2,-1,-1,-6
29,34,71,35,11,32.0,1.0,95,2,0,0,0,1,0,0,0,-6
30,35,69,34,9,33.0,1.0,95,2,-2,-1,10,7,-2,-1,-1,-7
31,36,71,35,11,34.0,1.0,105,3,0,0,0,1,2,1,1,-6
32,37,73,36,1,35.0,0.5,95,3,2,1,2,2,2,1,1,-5
33,39,69,34,9,36.0,0.5,95,3,-2,-1,10,7,-2,-1,-1,-6
34,41,74,37,2,37.0,1.0,95,3,3,2,3,3,3,2,1,-5
35,42,73,36,1,38.0,1.0,95,3,2,1,2,2,-1,-1,-1,-6
36,43,71,35,11,39.0,1.0,95,3,0,0,0,1,-2,-1,-1,-7
37,44,69,34,9,40.0,1.0,95,3,-2,-1,10,7,-2,-1,-1,-8
38,45,66,32,6,41.0,2.0,95,3,-5,-3,7,5,-3,-2,-1,-9
39,46,66,32,6,43.0,1.0,95,3,-5,-3,7,5,0,0,0,-9
40,47,66,32,6,44.0,1.0,95,3,-5,-3,7,5,0,0,0,-9
41,48,69,34,9,45.0,1.0,105,4,-2,-1,10,7,3,2,1,-8
42,49,71,35,11,46.0,1.0,105,5,0,0,0,1,2,1,1,-7
43,50,78,39,6,47.0,1.0,95,5,7,4,7,5,7,4,1,-6
44,51,76,38,4,48.0,1.0,95,5,5,3,5,4,-2,-1,-1,-7
45,52,74,37,2,49.0,1.0,95,5,3,2,3,3,-2,-1,-1,-8
46,53,76,38,4,50.0,1.0,95,5,5,3,5,4,2,1,1,-7
47,54,74,37,2,51.0,1.0,95,5,3,2,3,3,-2,-1,-1,-8
48,55,73,36,1,52.0,1.0,95,5,2,1,2,2,-1,-1,-1,-9
49,56,71,35,11,53.0,2.0,95,5,0,0,0,1,-2,-1,-1,-10
50,57,71,35,11,55.0,1.0,95,5,0,0,0,1,0,0,0,-10
51,58,69,34,9,56.0,1.0,95,5,-2,-1,10,7,-2,-1,-1,-11
52,59,71,35,11,57.0,1.0,105,6,0,0,0,1,2,1,1,-10
53,60,73,36,1,58.0,0.5,95,6,2,1,2,2,2,1,1,-9
54,62,69,34,9,59.0,0.5,95,6,-2,-1,10,7,-2,-1,-1,-10
55,64,74,37,2,60.0,1.0,95,6,3,2,3,3,3,2,1,-9
56,65,73,36,1,61.0,1.0,95,6,2,1,2,2,-1,-1,-1,-10
57,66,71,35,11,62.0,1.0,95,6,0,0,0,1,-2,-1,-1,-11
58,67,69,34,9,63.0,1.0,95,6,-2,-1,10,7,-2,-1,-1,-12
59,68,71,35,11,64.0,1.0,95,6,0,0,0,1,2,1,1,-11
60,69,73,36,1,65.0,0.5,95,6,2,1,2,2,2,1,1,-10
61,71,69,34,9,66.0,0.5,95,6,-2,-1,10,7,-2,-1,-1,-11
62,73,69,34,9,67.0,1.0,95,6,-2,-1,10,7,-2,-1,0,-11
63,74,71,35,11,68.0,1.0,105,7,0,0,0,1,2,1,1,-10
64,75,78,39,6,69.0,1.0,95,7,7,4,7,5,7,4,1,-9
65,76,76,38,4,70.0,1.0,95,7,5,3,5,4,-2,-1,-1,-10
66,77,74,37,2,71.0,1.0,95,7,3,2,3,3,-2,-1,-1,-11
67,78,76,38,4,72.0,1.0,95,7,5,3,5,4,2,1,1,-10
68,79,74,37,2,73.0,1.0,95,7,3,2,3,3,-2,-1,-1,-11
69,80,73,36,1,74.0,1.0,95,7,2,1,2,2,-1,-1,-1,-12
70,81,71,35,11,75.0,2.0,95,7,0,0,0,1,-2,-1,-1,-13
71,82,71,35,11,77.0,1.0,95,7,0,0,0,1,0,0,0,-13
72,83,69,34,9,78.0,1.0,95,7,-2,-1,10,7,-2,-1,-1,-14
73,84,71,35,11,79.0,1.0,105,8,0,0,0,1,2,1,1,-13
74,85,73,36,1,80.0,0.5,95,8,2,1,2,2,2,1,1,-12
75,87,69,34,9,81.0,0.5,95,8,-2,-1,10,7,-2,-1,-1,-13
76,89,74,37,2,82.0,1.0,95,8,3,2,3,3,3,2,1,-12
77,90,73,36,1,83.0,1.0,95,8,2,1,2,2,-1,-1,-1,-13
78,91,71,35,11,84.0,1.0,95,8,0,0,0,1,-2,-1,-1,-14
79,92,69,34,9,85.0,1.0,95,8,-2,-1,10,7,-2,-1,-1,-15
80,93,66,32,6,86.0,2.0,95,8,-5,-3,7,5,-3,-2,-1,-16
81,94,66,32,6,88.0,1.0,95,8,-5,-3,7,5,0,0,0,-16
82,95,74,37,2,89.0,1.0,95,8,3,2,3,3,8,5,1,-15
83,96,76,38,4,90.0,1.0,105,9,5,3,5,4,2,1,1,-14
84,103,76,38,4,97.0,2.0,105,10,5,3,5,4,2,1,0,-14
85,109,74,37,2,104.0,2.0,105,11,3,2,3,3,5,3,-1,-15
86,114,69,34,9,111.0,1.0,105,12,-2,-1,10,7,0,0,-1,-16
87,120,76,38,4,118.0,1.0,105,13,5,3,5,4,2,1,1,-15
88,127,76,38,4,125.0,2.0,105,14,5,3,5,4,2,1,0,-15
89,133,74,37,2,132.0,2.0,105,15,3,2,3,3,5,3,-1,-16
90,138,69,34,9,139.0,1.0,105,16,-2,-1,10,7,0,0,-1,-17
91,144,76,38,4,146.0,1.0,105,17,5,3,5,4,2,1,1,-16
92,151,76,38,4,153.0,2.0,105,18,5,3,5,4,2,1,0,-16
93,157,74,37,2,160.0,2.0,105,19,3,2,3,3,5,3,-1,-17
94,162,69,34,9,167.0,1.0,105,20,-2,-1,10,7,0,0,-1,-18
95,168,76,38,4,174.0,1.0,105,21,5,3,5,4,2,1,1,-17
96,175,76,38,4,181.0,2.0,105,22,5,3,5,4,2,1,0,-17
97,181,74,37,2,188.0,2.0,105,23,3,2,3,3,5,3,-1,-18
98,186,69,34,9,195.0,1.0,105,24,-2,-1,10,7,0,0,-1,-19
