,index,midi_note_num,diatonic_note_num,chromatic_pitch_class,onset,duration,velocity,bar_count,relative_chromatic_pitch,relative_diatonic_pitch,chromatic_scale_degree,diatonic_scale_degree,chromatic_interval,diatonic_interval,parsons_code,parsons_cumsum
0,0,69,34,9,0.0,2.0,105,0,7,4,7,5,0,0,0,0
1,5,69,34,9,6.0,2.0,105,1,7,4,7,5,0,0,0,0
2,10,69,34,9,12.0,2.0,105,2,7,4,7,5,2,1,0,0
3,15,76,38,4,18.0,1.0,105,3,14,8,2,2,7,4,1,1
4,21,69,34,9,24.0,2.0,105,4,7,4,7,5,0,0,-1,0
5,26,69,34,9,30.0,2.0,105,5,7,4,7,5,0,0,0,0
6,31,69,34,9,36.0,2.0,105,6,7,4,7,5,2,1,0,0
7,36,76,38,4,42.0,1.0,105,7,14,8,2,2,7,4,1,1
8,41,69,34,9,48.0,2.0,105,8,7,4,7,5,0,0,-1,0
9,46,69,34,9,54.0,2.0,105,9,7,4,7,5,0,0,0,0
10,51,69,34,9,60.0,2.0,105,10,7,4,7,5,0,0,0,0
11,56,76,38,4,66.0,1.0,105,11,14,8,2,2,7,4,1,1
12,62,69,34,9,72.0,2.0,105,12,7,4,7,5,0,0,-1,0
13,67,69,34,9,78.0,2.0,105,13,7,4,7,5,0,0,0,0
14,72,69,34,9,84.0,2.0,105,14,7,4,7,5,0,0,0,0
15,77,76,38,4,90.0,1.0,105,15,14,8,2,2,7,4,1,1
16,82,76,38,4,96.0,1.0,105,16,14,8,2,2,7,4,0,1
17,86,78,39,6,100.0,2.0,95,16,16,9,4,3,2,1,1,2
18,89,76,38,4,104.0,1.0,105,17,14,8,2,2,7,4,-1,1
19,93,76,38,4,108.0,1.0,95,17,14,8,2,2,2,1,0,1
20,97,76,38,4,112.0,1.0,105,18,14,8,2,2,2,1,0,1
21,101,78,39,6,116.0,2.0,95,18,16,9,4,3,2,1,1,2
22,104,76,38,4,120.0,1.0,105,19,14,8,2,2,7,4,-1,1
23,108,73,36,1,124.0,3.0,95,19,11,6,11,7,-3,-2,-1,0
24,110,76,38,4,128.0,1.0,105,20,14,8,2,2,2,1,1,1
25,114,78,39,6,132.0,2.0,95,20,16,9,4,3,2,1,1,2
26,117,76,38,4,136.0,1.0,105,21,14,8,2,2,7,4,-1,1
27,121,76,38,4,140.0,1.0,95,21,14,8,2,2,2,1,0,1
28,125,76,38,4,144.0,1.0,105,22,14,8,2,2,2,1,0,1
29,129,78,39,6,148.0,2.0,95,22,16,9,4,3,2,1,1,2
30,132,76,38,4,152.0,1.0,105,23,14,8,2,2,7,4,-1,1
31,136,73,36,1,156.0,1.0,95,23,11,6,11,7,-3,-2,-1,0
32,138,76,38,4,160.0,1.0,105,24,14,8,2,2,7,4,1,1
33,142,78,39,6,164.0,2.0,95,24,16,9,4,3,2,1,1,2
34,145,76,38,4,168.0,1.0,105,25,14,8,2,2,7,4,-1,1
35,149,76,38,4,172.0,1.0,95,25,14,8,2,2,2,1,0,1
36,153,76,38,4,176.0,1.0,105,26,14,8,2,2,2,1,0,1
37,157,78,39,6,180.0,2.0,95,26,16,9,4,3,2,1,1,2
38,160,76,38,4,184.0,1.0,105,27,14,8,2,2,7,4,-1,1
39,164,73,36,1,188.0,3.0,95,27,11,6,11,7,-3,-2,-1,0
40,166,76,38,4,192.0,1.0,105,28,14,8,2,2,2,1,1,1
41,170,78,39,6,196.0,2.0,95,28,16,9,4,3,2,1,1,2
42,173,76,38,4,200.0,1.0,105,29,14,8,2,2,7,4,-1,1
43,177,76,38,4,204.0,1.0,95,29,14,8,2,2,2,1,0,1
44,181,76,38,4,208.0,1.0,105,30,14,8,2,2,2,1,0,1
45,185,78,39,6,212.0,2.0,95,30,16,9,4,3,2,1,1,2
46,188,76,38,4,216.0,1.0,105,31,14,8,2,2,7,4,-1,1
47,192,73,36,1,220.0,1.0,95,31,11,6,11,7,-3,-2,-1,0
48,194,69,34,9,224.0,1.0,105,32,7,4,7,5,0,0,-1,-1
49,198,76,38,4,228.0,1.0,95,32,14,8,2,2,0,0,1,0
50,202,76,38,4,232.0,1.0,105,33,14,8,2,2,7,4,0,0
51,206,76,38,4,236.0,1.0,95,33,14,8,2,2,2,1,0,0
52,210,69,34,9,240.0,1.0,105,34,7,4,7,5,-5,-3,-1,-1
53,214,76,38,4,244.0,1.0,95,34,14,8,2,2,0,0,1,0
54,218,76,38,4,248.0,1.0,105,35,14,8,2,2,7,4,0,0
55,222,73,36,1,252.0,3.0,95,35,11,6,11,7,-3,-2,-1,-1
56,224,69,34,9,256.0,1.0,105,36,7,4,7,5,-2,-1,-1,-2
57,228,76,38,4,260.0,1.0,95,36,14,8,2,2,0,0,1,-1
58,232,76,38,4,264.0,1.0,105,37,14,8,2,2,7,4,0,-1
59,236,76,38,4,268.0,1.0,95,37,14,8,2,2,2,1,0,-1
60,240,69,34,9,272.0,1.0,105,38,7,4,7,5,-5,-3,-1,-2
61,244,76,38,4,276.0,1.0,95,38,14,8,2,2,0,0,1,-1
62,248,76,38,4,280.0,1.0,105,39,14,8,2,2,7,4,0,-1
63,252,73,36,1,284.0,1.0,95,39,11,6,11,7,-3,-2,-1,-2
64,254,69,34,9,288.0,1.0,105,40,7,4,7,5,0,0,-1,-3
65,258,76,38,4,292.0,1.0,95,40,14,8,2,2,0,0,1,-2
66,262,76,38,4,296.0,1.0,105,41,14,8,2,2,7,4,0,-2
67,266,76,38,4,300.0,1.0,95,41,14,8,2,2,2,1,0,-2
68,270,69,34,9,304.0,1.0,105,42,7,4,7,5,-5,-3,-1,-3
69,274,76,38,4,308.0,1.0,95,42,14,8,2,2,0,0,1,-2
70,278,76,38,4,312.0,1.0,105,43,14,8,2,2,7,4,0,-2
71,282,73,36,1,316.0,3.0,95,43,11,6,11,7,-3,-2,-1,-3
72,284,69,34,9,320.0,1.0,105,44,7,4,7,5,-2,-1,-1,-4
73,288,76,38,4,324.0,1.0,95,44,14,8,2,2,0,0,1,-3
74,292,76,38,4,328.0,1.0,105,45,14,8,2,2,7,4,0,-3
75,296,76,38,4,332.0,1.0,95,45,14,8,2,2,2,1,0,-3
76,300,69,34,9,336.0,1.0,105,46,7,4,7,5,-5,-3,-1,-4
77,304,76,38,4,340.0,1.0,95,46,14,8,2,2,0,0,1,-3
78,308,76,38,4,344.0,1.0,105,47,14,8,2,2,7,4,0,-3
79,312,73,36,1,348.0,1.0,95,47,11,6,11,7,-3,-2,-1,-4
