,index,midi_note_num,diatonic_note_num,chromatic_pitch_class,onset,duration,velocity,bar_count,relative_chromatic_pitch,relative_diatonic_pitch,chromatic_scale_degree,diatonic_scale_degree,chromatic_interval,diatonic_interval,parsons_code,parsons_cumsum
0,0,64,31,4,0.0,3.0,105,0,-5,-3,7,5,0,0,0,0
1,2,64,31,4,4.0,1.0,95,0,-5,-3,7,5,2,1,0,0
2,6,62,30,2,8.0,1.0,105,1,-7,-4,5,4,2,1,-1,-1
3,11,62,30,2,12.0,4.0,95,1,-7,-4,5,4,-2,-1,0,-1
4,12,64,31,4,16.0,3.0,105,2,-5,-3,7,5,2,1,1,0
5,14,64,31,4,20.0,1.0,95,2,-5,-3,7,5,0,0,0,0
6,18,65,32,5,24.0,3.0,105,3,-4,-2,8,6,1,1,1,1
7,22,64,31,4,32.0,3.0,105,4,-5,-3,7,5,0,0,-1,0
8,24,64,31,4,36.0,1.0,95,4,-5,-3,7,5,2,1,0,0
9,28,62,30,2,40.0,1.0,105,5,-7,-4,5,4,2,1,-1,-1
10,33,62,30,2,44.0,3.0,95,5,-7,-4,5,4,-2,-1,0,-1
11,35,60,29,0,48.0,1.0,105,6,-9,-5,3,3,3,2,-1,-2
12,39,67,33,7,52.0,1.0,95,6,-2,-1,10,7,5,3,1,-1
13,43,62,30,2,56.0,1.0,105,7,-7,-4,5,4,-7,-4,-1,-2
14,47,67,33,7,60.0,1.0,95,7,-2,-1,10,7,-4,-2,1,-1
15,51,64,31,4,64.0,3.0,105,8,-5,-3,7,5,4,2,-1,-2
16,53,64,31,4,68.0,1.0,95,8,-5,-3,7,5,2,1,0,-2
17,57,62,30,2,72.0,1.0,105,9,-7,-4,5,4,2,1,-1,-3
18,62,62,30,2,76.0,4.0,95,9,-7,-4,5,4,-2,-1,0,-3
19,63,64,31,4,80.0,3.0,105,10,-5,-3,7,5,2,1,1,-2
20,65,64,31,4,84.0,1.0,95,10,-5,-3,7,5,0,0,0,-2
21,69,65,32,5,88.0,3.0,105,11,-4,-2,8,6,1,1,1,-1
22,73,64,31,4,96.0,3.0,105,12,-5,-3,7,5,0,0,-1,-2
23,75,64,31,4,100.0,1.0,95,12,-5,-3,7,5,2,1,0,-2
24,79,62,30,2,104.0,1.0,105,13,-7,-4,5,4,2,1,-1,-3
25,84,62,30,2,108.0,1.0,95,13,-7,-4,5,4,-2,-1,0,-3
26,88,60,29,0,112.0,1.0,105,14,-9,-5,3,3,3,2,-1,-4
27,92,67,33,7,116.0,1.0,95,14,-2,-1,10,7,5,3,1,-3
28,96,62,30,2,120.0,1.0,105,15,-7,-4,5,4,-7,-4,-1,-4
29,100,67,33,7,124.0,1.0,95,15,-2,-1,10,7,-4,-2,1,-3
30,104,65,32,5,128.0,1.0,105,16,-4,-2,8,6,1,1,-1,-4
31,111,69,34,9,136.0,1.0,105,17,0,0,0,1,2,1,1,-3
32,114,64,31,4,140.0,1.0,95,17,-5,-3,7,5,-8,-5,-1,-4
33,121,72,36,0,148.0,1.0,95,17,3,2,3,3,3,2,1,-3
34,124,74,37,2,152.0,1.0,105,18,5,3,5,4,0,0,1,-2
35,128,69,34,9,156.0,1.0,95,18,0,0,0,1,-3,-2,-1,-3
36,132,69,34,9,160.0,1.0,105,19,0,0,0,1,4,2,0,-3
37,135,64,31,4,164.0,1.0,95,19,-5,-3,7,5,-8,-5,-1,-4
38,142,69,34,9,172.0,1.0,95,19,0,0,0,1,2,1,1,-3
39,146,72,36,0,176.0,1.0,105,20,3,2,3,3,5,3,1,-2
40,149,67,33,7,180.0,1.0,95,20,-2,-1,10,7,2,1,-1,-3
41,153,65,32,5,184.0,1.0,105,21,-4,-2,8,6,3,2,-1,-4
42,157,74,37,2,188.0,2.0,95,21,5,3,5,4,0,0,1,-3
43,160,65,32,5,192.0,1.0,105,22,-4,-2,8,6,1,1,-1,-4
44,167,69,34,9,200.0,1.0,105,23,0,0,0,1,2,1,1,-3
45,170,64,31,4,204.0,1.0,95,23,-5,-3,7,5,-8,-5,-1,-4
46,177,72,36,0,212.0,1.0,95,23,3,2,3,3,3,2,1,-3
47,180,74,37,2,216.0,1.0,105,24,5,3,5,4,0,0,1,-2
48,184,69,34,9,220.0,1.0,95,24,0,0,0,1,-3,-2,-1,-3
49,188,69,34,9,224.0,1.0,105,25,0,0,0,1,4,2,0,-3
50,191,64,31,4,228.0,1.0,95,25,-5,-3,7,5,-8,-5,-1,-4
51,198,69,34,9,236.0,1.0,95,25,0,0,0,1,2,1,1,-3
52,202,72,36,0,240.0,1.0,105,26,3,2,3,3,5,3,1,-2
53,205,67,33,7,244.0,1.0,95,26,-2,-1,10,7,2,1,-1,-3
54,209,65,32,5,248.0,1.0,105,27,-4,-2,8,6,3,2,-1,-4
55,213,74,37,2,252.0,1.0,95,27,5,3,5,4,0,0,1,-3
56,217,69,34,9,256.0,1.0,105,28,0,0,0,1,-8,-5,-1,-4
57,221,69,34,9,260.0,1.0,95,28,0,0,0,1,-8,-5,0,-4
58,225,69,34,9,264.0,1.0,105,29,0,0,0,1,-10,-6,0,-4
59,229,69,34,9,268.0,1.0,95,29,0,0,0,1,-10,-6,0,-4
60,233,69,34,9,272.0,1.0,105,30,0,0,0,1,-10,-6,0,-4
61,237,69,34,9,276.0,1.0,95,30,0,0,0,1,-10,-6,0,-4
62,241,69,34,9,280.0,1.0,105,31,0,0,0,1,-10,-6,0,-4
63,245,69,34,9,284.0,1.0,95,31,0,0,0,1,-10,-6,0,-4
64,249,69,34,9,288.0,1.0,105,32,0,0,0,1,-8,-5,0,-4
65,253,69,34,9,292.0,1.0,95,32,0,0,0,1,-8,-5,0,-4
66,257,69,34,9,296.0,1.0,105,33,0,0,0,1,-10,-6,0,-4
67,261,69,34,9,300.0,1.0,95,33,0,0,0,1,-10,-6,0,-4
68,265,69,34,9,304.0,1.0,105,34,0,0,0,1,-14,-8,0,-4
69,269,69,34,9,308.0,1.0,95,34,0,0,0,1,-14,-8,0,-4
70,273,69,34,9,312.0,1.0,105,35,0,0,0,1,-14,-8,0,-4
71,277,69,34,9,316.0,1.0,95,35,0,0,0,1,-14,-8,0,-4
72,281,69,34,9,320.0,1.0,105,36,0,0,0,1,-8,-5,0,-4
73,285,69,34,9,324.0,1.0,95,36,0,0,0,1,-8,-5,0,-4
74,289,69,34,9,328.0,1.0,105,37,0,0,0,1,-10,-6,0,-4
75,293,69,34,9,332.0,1.0,95,37,0,0,0,1,-10,-6,0,-4
76,297,69,34,9,336.0,1.0,105,38,0,0,0,1,-10,-6,0,-4
77,301,69,34,9,340.0,1.0,95,38,0,0,0,1,-10,-6,0,-4
78,305,69,34,9,344.0,1.0,105,39,0,0,0,1,-10,-6,0,-4
79,309,69,34,9,348.0,1.0,95,39,0,0,0,1,-10,-6,0,-4
80,313,69,34,9,352.0,1.0,105,40,0,0,0,1,-8,-5,0,-4
81,317,69,34,9,356.0,1.0,95,40,0,0,0,1,-8,-5,0,-4
82,321,69,34,9,360.0,1.0,105,41,0,0,0,1,-10,-6,0,-4
83,325,69,34,9,364.0,1.0,95,41,0,0,0,1,-10,-6,0,-4
84,329,69,34,9,368.0,1.0,105,42,0,0,0,1,-14,-8,0,-4
85,333,69,34,9,372.0,1.0,95,42,0,0,0,1,-14,-8,0,-4
86,337,77,39,5,376.0,1.0,105,43,8,5,8,6,0,0,1,-3
87,341,64,31,4,380.0,1.0,95,43,-5,-3,7,5,-8,-5,-1,-4
