,index,midi_note_num,diatonic_note_num,chromatic_pitch_class,onset,duration,velocity,bar_count,relative_chromatic_pitch,relative_diatonic_pitch,chromatic_scale_degree,diatonic_scale_degree,chromatic_interval,diatonic_interval,parsons_code,parsons_cumsum
0,0,76,38,4,0.0,1.0,105,0,9,5,9,6,0,0,0,0
1,3,67,33,7,3.0,1.0,95,0,0,0,0,1,-4,-2,-1,-1
2,8,62,30,2,6.0,1.0,105,1,-5,-3,7,5,-5,-3,-1,-2
3,11,67,33,7,9.0,1.0,95,1,0,0,0,1,5,3,1,-1
4,16,62,30,2,12.0,1.0,105,2,-5,-3,7,5,-5,-3,-1,-2
5,19,72,36,0,15.0,2.0,95,2,5,3,5,4,10,6,1,-1
6,21,71,35,11,18.0,1.0,105,3,4,2,4,3,2,1,-1,-2
7,24,64,31,4,21.0,1.0,95,3,-3,-2,9,6,0,0,-1,-3
8,28,76,38,4,24.0,1.0,105,4,9,5,9,6,2,1,1,-2
9,31,67,33,7,27.0,1.0,95,4,0,0,0,1,-4,-2,-1,-3
10,36,62,30,2,30.0,1.0,105,5,-5,-3,7,5,-5,-3,-1,-4
11,39,67,33,7,33.0,1.0,95,5,0,0,0,1,5,3,1,-3
12,44,69,34,9,36.0,1.0,105,6,2,1,2,2,2,1,1,-2
13,47,67,33,7,39.0,1.0,95,6,0,0,0,1,1,1,-1,-3
14,50,67,33,7,42.0,1.0,105,7,0,0,0,1,-2,-1,0,-3
15,53,62,30,2,45.0,1.0,95,7,-5,-3,7,5,-2,-1,-1,-4
16,57,76,38,4,48.0,1.0,105,8,9,5,9,6,2,1,1,-3
17,60,67,33,7,51.0,1.0,95,8,0,0,0,1,-4,-2,-1,-4
18,65,62,30,2,54.0,1.0,105,9,-5,-3,7,5,-5,-3,-1,-5
19,68,67,33,7,57.0,1.0,95,9,0,0,0,1,5,3,1,-4
20,73,62,30,2,60.0,1.0,105,10,-5,-3,7,5,-5,-3,-1,-5
21,76,72,36,0,63.0,2.0,95,10,5,3,5,4,10,6,1,-4
22,78,71,35,11,66.0,1.0,105,11,4,2,4,3,2,1,-1,-5
23,81,64,31,4,69.0,1.0,95,11,-3,-2,9,6,0,0,-1,-6
24,85,76,38,4,72.0,1.0,105,12,9,5,9,6,2,1,1,-5
25,88,67,33,7,75.0,1.0,95,12,0,0,0,1,-4,-2,-1,-6
26,93,62,30,2,78.0,1.0,105,13,-5,-3,7,5,-5,-3,-1,-7
27,96,67,33,7,81.0,1.0,95,13,0,0,0,1,5,3,1,-6
28,101,69,34,9,84.0,1.0,105,14,2,1,2,2,2,1,1,-5
29,104,67,33,7,87.0,1.0,95,14,0,0,0,1,1,1,-1,-6
30,107,67,33,7,90.0,1.0,105,15,0,0,0,1,-2,-1,0,-6
31,110,62,30,2,93.0,2.0,95,15,-5,-3,7,5,-2,-1,-1,-7
32,112,71,35,11,96.0,1.0,105,16,4,2,4,3,-3,-2,1,-6
33,117,74,37,2,99.0,1.0,95,16,7,4,7,5,3,2,1,-5
34,120,71,35,11,102.0,1.0,105,17,4,2,4,3,4,2,-1,-6
35,125,74,37,2,105.0,1.0,95,17,7,4,7,5,3,2,1,-5
36,128,69,34,9,108.0,1.0,105,18,2,1,2,2,2,1,-1,-6
37,133,69,34,9,111.0,1.0,95,18,2,1,2,2,0,0,0,-6
38,136,71,35,11,114.0,1.0,105,19,4,2,4,3,2,1,1,-5
39,139,64,31,4,117.0,2.0,95,19,-3,-2,9,6,0,0,-1,-6
40,141,71,35,11,120.0,1.0,105,20,4,2,4,3,-1,-1,1,-5
41,146,74,37,2,123.0,1.0,95,20,7,4,7,5,3,2,1,-4
42,149,83,42,11,126.0,1.0,105,21,16,9,4,3,4,2,1,-3
43,152,74,37,2,129.0,2.0,95,21,7,4,7,5,-2,-1,-1,-4
44,154,71,35,11,132.0,1.0,105,22,4,2,4,3,-1,-1,-1,-5
45,159,67,33,7,135.0,1.0,95,22,0,0,0,1,-4,-2,-1,-6
46,162,67,33,7,138.0,1.0,105,23,0,0,0,1,-2,-1,0,-6
47,165,62,30,2,141.0,2.0,95,23,-5,-3,7,5,-2,-1,-1,-7
48,167,71,35,11,144.0,1.0,105,24,4,2,4,3,2,1,1,-6
49,172,74,37,2,147.0,1.0,95,24,7,4,7,5,3,2,1,-5
50,175,71,35,11,150.0,1.0,105,25,4,2,4,3,4,2,-1,-6
51,180,74,37,2,153.0,1.0,95,25,7,4,7,5,3,2,1,-5
52,183,69,34,9,156.0,1.0,105,26,2,1,2,2,2,1,-1,-6
53,188,69,34,9,159.0,1.0,95,26,2,1,2,2,0,0,0,-6
54,191,71,35,11,162.0,1.0,105,27,4,2,4,3,2,1,1,-5
55,194,64,31,4,165.0,2.0,95,27,-3,-2,9,6,0,0,-1,-6
56,196,71,35,11,168.0,1.0,105,28,4,2,4,3,-1,-1,1,-5
57,201,74,37,2,171.0,1.0,95,28,7,4,7,5,3,2,1,-4
58,204,83,42,11,174.0,1.0,105,29,16,9,4,3,4,2,1,-3
59,207,74,37,2,177.0,2.0,95,29,7,4,7,5,-2,-1,-1,-4
60,209,71,35,11,180.0,1.0,105,30,4,2,4,3,-1,-1,-1,-5
61,214,67,33,7,183.0,1.0,95,30,0,0,0,1,-4,-2,-1,-6
62,217,67,33,7,186.0,1.0,105,31,0,0,0,1,-2,-1,0,-6
63,220,62,30,2,189.0,1.0,95,31,-5,-3,7,5,-2,-1,-1,-7
64,222,76,38,4,191.0,1.0,105,32,9,5,9,6,2,1,1,-6
65,225,76,38,4,194.0,1.0,95,32,9,5,9,6,-3,-2,0,-6
66,228,74,37,2,197.0,1.0,105,33,7,4,7,5,-5,-3,-1,-7
67,231,69,34,9,200.0,1.0,95,33,2,1,2,2,2,1,-1,-8
68,234,81,41,9,203.0,1.0,105,34,14,8,2,2,17,10,1,-7
69,237,81,41,9,206.0,1.0,95,34,14,8,2,2,0,0,0,-7
70,240,83,42,11,209.0,1.0,105,35,16,9,4,3,2,1,1,-6
71,243,76,38,4,212.0,2.0,95,35,9,5,9,6,0,0,-1,-7
72,245,76,38,4,215.0,1.0,105,36,9,5,9,6,2,1,0,-7
73,248,76,38,4,218.0,1.0,95,36,9,5,9,6,-3,-2,0,-7
74,251,74,37,2,221.0,1.0,105,37,7,4,7,5,-5,-3,-1,-8
75,254,69,34,9,224.0,1.0,95,37,2,1,2,2,2,1,-1,-9
76,257,81,41,9,227.0,1.0,105,38,14,8,2,2,17,10,1,-8
77,260,79,40,7,230.0,1.0,95,38,12,7,0,1,1,1,-1,-9
78,263,79,40,7,233.0,1.0,105,39,12,7,0,1,-2,-1,0,-9
79,266,74,37,2,236.0,1.0,95,39,7,4,7,5,-2,-1,-1,-10
80,270,76,38,4,239.0,1.0,105,40,9,5,9,6,2,1,1,-9
81,273,76,38,4,242.0,1.0,95,40,9,5,9,6,-3,-2,0,-9
82,276,74,37,2,245.0,1.0,105,41,7,4,7,5,-5,-3,-1,-10
83,279,69,34,9,248.0,1.0,95,41,2,1,2,2,2,1,-1,-11
84,282,81,41,9,251.0,1.0,105,42,14,8,2,2,17,10,1,-10
85,285,81,41,9,254.0,1.0,95,42,14,8,2,2,0,0,0,-10
86,288,83,42,11,257.0,1.0,105,43,16,9,4,3,2,1,1,-9
87,291,76,38,4,260.0,2.0,95,43,9,5,9,6,0,0,-1,-10
88,293,74,37,2,263.0,1.0,105,44,7,4,7,5,3,2,-1,-11
89,296,79,40,7,266.0,1.0,95,44,12,7,0,1,1,1,1,-10
90,299,79,40,7,269.0,1.0,105,45,12,7,0,1,-2,-1,0,-10
91,302,74,37,2,272.0,2.0,95,45,7,4,7,5,-2,-1,-1,-11
92,304,71,35,11,275.0,1.0,105,46,4,2,4,3,-1,-1,-1,-12
93,309,67,33,7,278.0,1.0,95,46,0,0,0,1,-4,-2,-1,-13
94,312,67,33,7,281.0,1.0,105,47,0,0,0,1,-2,-1,0,-13
95,315,62,30,2,284.0,1.0,95,47,-5,-3,7,5,-2,-1,-1,-14
