,index,midi_note_num,diatonic_note_num,chromatic_pitch_class,onset,duration,velocity,bar_count,relative_chromatic_pitch,relative_diatonic_pitch,chromatic_scale_degree,diatonic_scale_degree,chromatic_interval,diatonic_interval,parsons_code,parsons_cumsum
0,0,69,34,9,0.0,3.0,105,0,2,1,2,2,0,0,0,0
1,2,69,34,9,4.0,1.0,95,0,2,1,2,2,-2,-1,0,0
2,6,62,30,2,8.0,1.0,105,1,-5,-3,7,5,-7,-4,-1,-1
3,10,72,36,0,12.0,1.0,95,1,5,3,5,4,1,1,1,0
4,14,69,34,9,16.0,0.67,105,2,2,1,2,2,-3,-2,-1,-1
5,19,69,34,9,20.0,1.0,95,2,2,1,2,2,2,1,0,-1
6,23,62,30,2,24.0,1.0,105,3,-5,-3,7,5,-7,-4,-1,-2
7,26,62,30,2,28.0,1.0,95,3,-5,-3,7,5,-5,-3,0,-2
8,30,69,34,9,32.0,0.67,105,4,2,1,2,2,2,1,1,-1
9,39,69,34,9,40.5,1.0,105,5,2,1,2,2,2,1,0,-1
10,43,78,39,6,44.5,3.0,95,5,11,6,11,7,2,1,1,0
11,45,81,41,9,48.5,1.0,105,6,14,8,2,2,2,1,1,1
12,49,78,39,6,52.5,0.67,95,6,11,6,11,7,2,1,-1,0
13,54,74,37,2,56.5,1.0,105,7,7,4,7,5,1,1,-1,-1
14,58,67,33,7,60.5,2.0,95,7,0,0,0,1,1,1,-1,-2
15,61,69,34,9,64.5,3.0,105,8,2,1,2,2,2,1,1,-1
16,63,69,34,9,68.5,1.0,95,8,2,1,2,2,-2,-1,0,-1
17,67,62,30,2,72.5,1.0,105,9,-5,-3,7,5,-7,-4,-1,-2
18,71,72,36,0,76.5,1.0,95,9,5,3,5,4,1,1,1,-1
19,75,69,34,9,80.5,0.67,105,10,2,1,2,2,-3,-2,-1,-2
20,80,69,34,9,84.5,1.0,95,10,2,1,2,2,2,1,0,-2
21,84,62,30,2,88.5,1.0,105,11,-5,-3,7,5,-7,-4,-1,-3
22,87,62,30,2,92.5,1.0,95,11,-5,-3,7,5,-5,-3,0,-3
23,91,69,34,9,96.5,0.67,105,12,2,1,2,2,2,1,1,-2
24,100,69,34,9,104.7,1.0,105,13,2,1,2,2,2,1,0,-2
25,104,78,39,6,108.7,3.0,95,13,11,6,11,7,2,1,1,-1
26,106,81,41,9,112.7,1.0,105,14,14,8,2,2,2,1,1,0
27,110,78,39,6,116.7,0.67,95,14,11,6,11,7,2,1,-1,-1
28,115,74,37,2,120.7,1.0,105,15,7,4,7,5,1,1,-1,-2
29,119,67,33,7,124.7,2.0,95,15,0,0,0,1,1,1,-1,-3
30,122,69,34,9,128.6,1.0,105,16,2,1,2,2,2,1,1,-2
31,126,69,34,9,132.6,1.0,95,16,2,1,2,2,-3,-2,0,-2
32,130,69,34,9,136.6,1.0,105,17,2,1,2,2,2,1,0,-2
33,134,78,39,6,140.6,1.0,95,17,11,6,11,7,2,1,1,-1
34,138,69,34,9,144.6,1.0,105,18,2,1,2,2,-4,-2,-1,-2
35,142,69,34,9,148.6,1.0,95,18,2,1,2,2,-3,-2,0,-2
36,146,62,30,2,152.6,1.0,105,19,-5,-3,7,5,-7,-4,-1,-3
37,149,62,30,2,156.6,1.0,95,19,-5,-3,7,5,-5,-3,0,-3
38,153,69,34,9,160.6,1.0,105,20,2,1,2,2,2,1,1,-2
39,156,69,34,9,164.6,1.0,95,20,2,1,2,2,7,4,0,-2
40,160,69,34,9,168.6,1.0,105,21,2,1,2,2,2,1,0,-2
41,164,78,39,6,172.6,3.0,95,21,11,6,11,7,2,1,1,-1
42,166,81,41,9,176.6,1.0,105,22,14,8,2,2,2,1,1,0
43,170,78,39,6,180.6,1.0,95,22,11,6,11,7,2,1,-1,-1
44,174,74,37,2,184.6,1.0,105,23,7,4,7,5,1,1,-1,-2
45,178,67,33,7,188.6,2.0,95,23,0,0,0,1,1,1,-1,-3
46,181,69,34,9,192.6,1.0,105,24,2,1,2,2,2,1,1,-2
47,185,69,34,9,196.6,1.0,95,24,2,1,2,2,-3,-2,0,-2
48,189,69,34,9,200.6,1.0,105,25,2,1,2,2,2,1,0,-2
49,193,78,39,6,204.6,1.0,95,25,11,6,11,7,2,1,1,-1
50,197,69,34,9,208.6,1.0,105,26,2,1,2,2,-4,-2,-1,-2
51,201,69,34,9,212.6,1.0,95,26,2,1,2,2,-3,-2,0,-2
52,205,62,30,2,216.6,1.0,105,27,-5,-3,7,5,-7,-4,-1,-3
53,208,62,30,2,220.6,1.0,95,27,-5,-3,7,5,-5,-3,0,-3
54,212,69,34,9,224.6,1.0,105,28,2,1,2,2,2,1,1,-2
55,215,69,34,9,228.6,1.0,95,28,2,1,2,2,7,4,0,-2
56,219,69,34,9,232.6,1.0,105,29,2,1,2,2,2,1,0,-2
57,223,78,39,6,236.6,3.0,95,29,11,6,11,7,2,1,1,-1
58,225,81,41,9,240.6,1.0,105,30,14,8,2,2,2,1,1,0
59,229,78,39,6,244.6,1.0,95,30,11,6,11,7,2,1,-1,-1
60,233,74,37,2,248.6,1.0,105,31,7,4,7,5,1,1,-1,-2
61,237,67,33,7,252.6,2.0,95,31,0,0,0,1,1,1,-1,-3
62,240,69,34,9,256.8,3.0,105,32,2,1,2,2,2,1,1,-2
63,242,78,39,6,260.8,1.0,95,32,11,6,11,7,-1,-1,1,-1
64,246,74,37,2,264.8,1.0,105,33,7,4,7,5,-2,-1,-1,-2
65,250,72,36,0,268.8,1.0,95,33,5,3,5,4,1,1,-1,-3
66,254,69,34,9,272.8,3.0,105,34,2,1,2,2,-3,-2,-1,-4
67,256,78,39,6,276.8,1.0,95,34,11,6,11,7,-1,-1,1,-3
68,260,74,37,2,280.8,1.0,105,35,7,4,7,5,-2,-1,-1,-4
69,264,67,33,7,284.8,2.0,95,35,0,0,0,1,1,1,-1,-5
70,267,69,34,9,288.8,3.0,105,36,2,1,2,2,2,1,1,-4
71,269,78,39,6,292.8,1.0,95,36,11,6,11,7,-1,-1,1,-3
72,273,74,37,2,296.8,1.0,105,37,7,4,7,5,-2,-1,-1,-4
73,277,72,36,0,300.8,1.0,95,37,5,3,5,4,1,1,-1,-5
74,281,78,39,6,304.8,1.0,105,38,11,6,11,7,-1,-1,1,-4
75,285,74,37,2,308.8,0.67,95,38,7,4,7,5,2,1,-1,-5
76,290,74,37,2,312.8,1.0,105,39,7,4,7,5,5,3,0,-5
77,294,67,33,7,316.8,2.0,95,39,0,0,0,1,-2,-1,-1,-6
78,297,69,34,9,320.8,3.0,105,40,2,1,2,2,2,1,1,-5
79,299,78,39,6,324.8,1.0,95,40,11,6,11,7,-1,-1,1,-4
80,303,74,37,2,328.8,1.0,105,41,7,4,7,5,-2,-1,-1,-5
81,307,72,36,0,332.8,1.0,95,41,5,3,5,4,1,1,-1,-6
82,311,69,34,9,336.8,3.0,105,42,2,1,2,2,-3,-2,-1,-7
83,313,78,39,6,340.8,1.0,95,42,11,6,11,7,-1,-1,1,-6
84,317,74,37,2,344.8,1.0,105,43,7,4,7,5,-2,-1,-1,-7
85,321,67,33,7,348.8,2.0,95,43,0,0,0,1,1,1,-1,-8
86,324,69,34,9,352.8,3.0,105,44,2,1,2,2,2,1,1,-7
87,326,78,39,6,356.8,1.0,95,44,11,6,11,7,-1,-1,1,-6
88,330,74,37,2,360.8,1.0,105,45,7,4,7,5,-2,-1,-1,-7
89,334,72,36,0,364.8,1.0,95,45,5,3,5,4,1,1,-1,-8
90,338,78,39,6,368.8,1.0,105,46,11,6,11,7,-1,-1,1,-7
91,342,74,37,2,372.8,0.67,95,46,7,4,7,5,2,1,-1,-8
92,347,74,37,2,376.8,1.0,105,47,7,4,7,5,5,3,0,-8
93,351,67,33,7,380.8,2.0,95,47,0,0,0,1,-2,-1,-1,-9
