,index,midi_note_num,diatonic_note_num,chromatic_pitch_class,onset,duration,velocity,bar_count,relative_chromatic_pitch,relative_diatonic_pitch,chromatic_scale_degree,diatonic_scale_degree,chromatic_interval,diatonic_interval,parsons_code,parsons_cumsum
0,2,81,41,9,2.0,1.0,105,0,12,7,0,1,0,0,0,0
1,5,76,38,4,5.0,1.0,95,0,7,4,7,5,-5,-3,-1,-1
2,8,73,36,1,8.0,1.0,105,1,4,2,4,3,-3,-2,-1,-2
3,11,69,34,9,11.0,2.0,95,1,0,0,0,1,0,0,-1,-3
4,13,80,40,8,14.0,1.0,95,1,11,6,11,7,2,1,1,-2
5,14,81,41,9,15.0,1.0,105,2,12,7,0,1,1,1,1,-1
6,17,83,42,11,18.0,2.0,95,2,14,8,2,2,2,1,1,0
7,19,80,40,8,21.0,1.0,105,3,11,6,11,7,-1,-1,-1,-1
8,22,76,38,4,24.0,1.0,95,3,7,4,7,5,0,0,-1,-2
9,25,81,41,9,27.0,1.0,105,4,12,7,0,1,1,1,1,-1
10,28,81,41,9,30.0,1.0,95,4,12,7,0,1,0,0,0,-1
11,31,76,38,4,33.0,1.0,105,5,7,4,7,5,-2,-1,-1,-2
12,34,81,41,9,36.0,2.0,95,5,12,7,0,1,1,1,1,-1
13,36,80,40,8,39.0,1.0,105,6,11,6,11,7,-1,-1,-1,-2
14,39,76,38,4,42.0,1.0,95,6,7,4,7,5,-4,-2,-1,-3
15,42,81,41,9,45.0,3.0,105,7,12,7,0,1,-2,-1,1,-2
16,43,81,41,9,48.0,1.0,95,7,12,7,0,1,0,0,0,-2
17,46,81,41,9,51.0,1.0,105,8,12,7,0,1,1,1,0,-2
18,49,76,38,4,54.0,1.0,95,8,7,4,7,5,-5,-3,-1,-3
19,52,73,36,1,57.0,1.0,105,9,4,2,4,3,-3,-2,-1,-4
20,55,69,34,9,60.0,2.0,95,9,0,0,0,1,0,0,-1,-5
21,57,80,40,8,63.0,1.0,95,9,11,6,11,7,2,1,1,-4
22,58,81,41,9,64.0,1.0,105,10,12,7,0,1,1,1,1,-3
23,61,83,42,11,67.0,2.0,95,10,14,8,2,2,2,1,1,-2
24,63,80,40,8,70.0,1.0,105,11,11,6,11,7,-1,-1,-1,-3
25,66,76,38,4,73.0,1.0,95,11,7,4,7,5,0,0,-1,-4
26,69,81,41,9,76.0,1.0,105,12,12,7,0,1,1,1,1,-3
27,72,81,41,9,79.0,1.0,95,12,12,7,0,1,0,0,0,-3
28,75,76,38,4,82.0,1.0,105,13,7,4,7,5,-2,-1,-1,-4
29,78,73,36,1,85.0,1.0,95,13,4,2,4,3,-3,-2,-1,-5
30,81,71,35,11,88.0,1.0,105,14,2,1,2,2,2,1,-1,-6
31,84,80,40,8,91.0,1.0,95,14,11,6,11,7,-1,-1,1,-5
32,87,81,41,9,94.0,3.0,105,15,12,7,0,1,1,1,1,-4
33,88,81,41,9,97.0,1.0,95,15,12,7,0,1,0,0,0,-4
34,91,76,38,4,100.0,2.0,105,16,7,4,7,5,2,1,-1,-5
35,93,76,38,4,103.0,2.0,95,16,7,4,7,5,3,2,0,-5
36,95,76,38,4,106.0,1.0,105,17,7,4,7,5,-5,-3,0,-5
37,98,64,31,4,109.0,1.0,95,17,-5,-3,7,5,-5,-3,-1,-6
38,101,76,38,4,112.0,1.0,105,18,7,4,7,5,3,2,1,-5
39,104,81,41,9,115.0,1.0,95,18,12,7,0,1,5,3,1,-4
40,107,74,37,2,118.0,3.0,105,19,5,3,5,4,1,1,-1,-5
41,108,71,35,11,121.0,2.0,95,19,2,1,2,2,-3,-2,-1,-6
42,110,74,37,2,124.0,2.0,105,20,5,3,5,4,1,1,1,-5
43,112,74,37,2,127.0,2.0,95,20,5,3,5,4,1,1,0,-5
44,114,83,42,11,130.0,2.0,105,21,14,8,2,2,3,2,1,-4
45,116,80,40,8,133.0,2.0,95,21,11,6,11,7,-1,-1,-1,-5
46,118,76,38,4,136.0,1.0,105,22,7,4,7,5,-2,-1,-1,-6
47,121,78,39,6,139.0,1.0,95,22,9,5,9,6,2,1,1,-5
48,124,73,36,1,142.0,3.0,105,23,4,2,4,3,-2,-2,-1,-6
49,125,73,36,1,145.0,1.0,95,23,4,2,4,3,0,0,0,-6
50,128,76,38,4,148.0,2.0,105,24,7,4,7,5,3,2,1,-5
51,130,76,38,4,151.0,2.0,95,24,7,4,7,5,3,2,0,-5
52,132,76,38,4,154.0,1.0,105,25,7,4,7,5,-5,-3,0,-5
53,135,64,31,4,157.0,1.0,95,25,-5,-3,7,5,-5,-3,-1,-6
54,138,76,38,4,160.0,1.0,105,26,7,4,7,5,3,2,1,-5
55,141,81,41,9,163.0,2.0,95,26,12,7,0,1,5,3,1,-4
56,143,83,42,11,166.0,3.0,105,27,14,8,2,2,-2,-1,1,-3
57,144,83,42,11,169.0,2.0,95,27,14,8,2,2,0,0,0,-3
58,146,86,44,2,172.0,1.0,105,28,17,10,5,4,1,1,1,-2
59,149,86,44,2,175.0,2.0,95,28,17,10,5,4,0,0,0,-2
60,151,80,40,8,178.0,1.0,105,29,11,6,11,7,-3,-2,-1,-3
61,154,80,40,8,181.0,2.0,95,29,11,6,11,7,0,0,0,-3
62,156,76,38,4,184.0,1.0,105,30,7,4,7,5,-2,-1,-1,-4
63,159,85,43,1,187.0,2.0,95,30,16,9,4,3,9,5,1,-3
64,161,81,41,9,190.0,3.0,105,31,12,7,0,1,-2,-1,-1,-4
65,162,81,41,9,193.0,1.0,95,31,12,7,0,1,0,0,0,-4
66,165,76,38,4,196.0,2.0,105,32,7,4,7,5,2,1,-1,-5
67,167,76,38,4,199.0,2.0,95,32,7,4,7,5,3,2,0,-5
68,169,76,38,4,202.0,1.0,105,33,7,4,7,5,-5,-3,0,-5
69,172,64,31,4,205.0,1.0,95,33,-5,-3,7,5,-5,-3,-1,-6
70,175,76,38,4,208.0,1.0,105,34,7,4,7,5,3,2,1,-5
71,178,81,41,9,211.0,1.0,95,34,12,7,0,1,5,3,1,-4
72,181,74,37,2,214.0,3.0,105,35,5,3,5,4,1,1,-1,-5
73,182,71,35,11,217.0,2.0,95,35,2,1,2,2,-3,-2,-1,-6
74,184,74,37,2,220.0,2.0,105,36,5,3,5,4,1,1,1,-5
75,186,74,37,2,223.0,2.0,95,36,5,3,5,4,1,1,0,-5
76,188,83,42,11,226.0,2.0,105,37,14,8,2,2,3,2,1,-4
77,190,80,40,8,229.0,2.0,95,37,11,6,11,7,-1,-1,-1,-5
78,192,76,38,4,232.0,1.0,105,38,7,4,7,5,-2,-1,-1,-6
79,195,78,39,6,235.0,1.0,95,38,9,5,9,6,2,1,1,-5
80,198,73,36,1,238.0,3.0,105,39,4,2,4,3,-2,-2,-1,-6
81,199,73,36,1,241.0,1.0,95,39,4,2,4,3,0,0,0,-6
82,202,76,38,4,244.0,2.0,105,40,7,4,7,5,3,2,1,-5
83,204,76,38,4,247.0,2.0,95,40,7,4,7,5,3,2,0,-5
84,206,76,38,4,250.0,1.0,105,41,7,4,7,5,-5,-3,0,-5
85,209,64,31,4,253.0,1.0,95,41,-5,-3,7,5,-5,-3,-1,-6
86,212,76,38,4,256.0,1.0,105,42,7,4,7,5,3,2,1,-5
87,215,81,41,9,259.0,2.0,95,42,12,7,0,1,5,3,1,-4
88,217,83,42,11,262.0,3.0,105,43,14,8,2,2,-2,-1,1,-3
89,218,83,42,11,265.0,2.0,95,43,14,8,2,2,0,0,0,-3
90,220,86,44,2,268.0,1.0,105,44,17,10,5,4,1,1,1,-2
91,223,86,44,2,271.0,2.0,95,44,17,10,5,4,0,0,0,-2
92,225,80,40,8,274.0,1.0,105,45,11,6,11,7,-3,-2,-1,-3
93,228,80,40,8,277.0,2.0,95,45,11,6,11,7,0,0,0,-3
94,230,76,38,4,280.0,1.0,105,46,7,4,7,5,-2,-1,-1,-4
95,233,85,43,1,283.0,2.0,95,46,16,9,4,3,9,5,1,-3
96,235,81,41,9,286.0,3.0,105,47,12,7,0,1,-2,-1,-1,-4
97,236,81,41,9,289.0,1.0,95,47,12,7,0,1,0,0,0,-4
98,239,85,43,1,292.0,3.0,105,48,16,9,4,3,4,2,1,-3
99,240,85,43,1,295.0,1.0,95,48,16,9,4,3,0,0,0,-3
100,243,81,41,9,298.0,3.0,105,49,12,7,0,1,-2,-1,-1,-4
101,244,81,41,9,301.0,2.0,95,49,12,7,0,1,0,0,0,-4
102,246,76,38,4,304.0,1.0,105,50,7,4,7,5,3,2,-1,-5
103,249,78,39,6,307.0,1.0,95,50,9,5,9,6,2,1,1,-4
104,252,71,35,11,310.0,3.0,105,51,2,1,2,2,-2,-1,-1,-5
105,253,71,35,11,313.0,1.0,95,51,2,1,2,2,0,0,0,-5
106,256,83,42,11,316.0,3.0,105,52,14,8,2,2,2,1,1,-4
107,257,81,41,9,319.0,3.0,95,52,12,7,0,1,-2,-1,-1,-5
108,258,80,40,8,322.0,3.0,105,53,11,6,11,7,-1,-1,-1,-6
109,259,78,39,6,325.0,3.0,95,53,9,5,9,6,-2,-1,-1,-7
110,260,76,38,4,328.0,1.0,105,54,7,4,7,5,-2,-1,-1,-8
111,263,78,39,6,331.0,1.0,95,54,9,5,9,6,2,1,1,-7
112,266,73,36,1,334.0,3.0,105,55,4,2,4,3,-2,-2,-1,-8
113,267,73,36,1,337.0,1.0,95,55,4,2,4,3,0,0,0,-8
114,270,85,43,1,340.0,3.0,105,56,16,9,4,3,4,2,1,-7
115,271,85,43,1,343.0,1.0,95,56,16,9,4,3,0,0,0,-7
116,274,81,41,9,346.0,3.0,105,57,12,7,0,1,-2,-1,-1,-8
117,275,81,41,9,349.0,2.0,95,57,12,7,0,1,0,0,0,-8
118,277,76,38,4,352.0,1.0,105,58,7,4,7,5,3,2,-1,-9
119,280,78,39,6,355.0,1.0,95,58,9,5,9,6,2,1,1,-8
120,283,71,35,11,358.0,3.0,105,59,2,1,2,2,-2,-1,-1,-9
121,284,71,35,11,361.0,1.0,95,59,2,1,2,2,0,0,0,-9
122,287,83,42,11,364.0,1.0,105,60,14,8,2,2,2,1,1,-8
123,290,83,42,11,367.0,1.0,95,60,14,8,2,2,0,0,0,-8
124,293,80,40,8,370.0,1.0,105,61,11,6,11,7,-3,-2,-1,-9
125,296,80,40,8,373.0,1.0,95,61,11,6,11,7,0,0,0,-9
126,299,76,38,4,376.0,1.0,105,62,7,4,7,5,-4,-2,-1,-10
127,302,76,38,4,379.0,1.0,95,62,7,4,7,5,0,0,0,-10
128,305,81,41,9,382.0,3.0,105,63,12,7,0,1,1,1,1,-9
129,306,81,41,9,385.0,1.0,95,63,12,7,0,1,0,0,0,-9
130,309,85,43,1,388.0,3.0,105,64,16,9,4,3,4,2,1,-8
131,310,85,43,1,391.0,1.0,95,64,16,9,4,3,0,0,0,-8
132,313,81,41,9,394.0,3.0,105,65,12,7,0,1,-2,-1,-1,-9
133,314,81,41,9,397.0,2.0,95,65,12,7,0,1,0,0,0,-9
134,316,76,38,4,400.0,1.0,105,66,7,4,7,5,3,2,-1,-10
135,319,78,39,6,403.0,1.0,95,66,9,5,9,6,2,1,1,-9
136,322,71,35,11,406.0,3.0,105,67,2,1,2,2,-2,-1,-1,-10
137,323,71,35,11,409.0,1.0,95,67,2,1,2,2,0,0,0,-10
138,326,83,42,11,412.0,3.0,105,68,14,8,2,2,2,1,1,-9
139,327,81,41,9,415.0,3.0,95,68,12,7,0,1,-2,-1,-1,-10
140,328,80,40,8,418.0,3.0,105,69,11,6,11,7,-1,-1,-1,-11
141,329,78,39,6,421.0,3.0,95,69,9,5,9,6,-2,-1,-1,-12
142,330,76,38,4,424.0,1.0,105,70,7,4,7,5,-2,-1,-1,-13
143,333,78,39,6,427.0,1.0,95,70,9,5,9,6,2,1,1,-12
144,336,73,36,1,430.0,3.0,105,71,4,2,4,3,-2,-2,-1,-13
145,337,73,36,1,433.0,1.0,95,71,4,2,4,3,0,0,0,-13
146,340,85,43,1,436.0,3.0,105,72,16,9,4,3,4,2,1,-12
147,341,85,43,1,439.0,1.0,95,72,16,9,4,3,0,0,0,-12
148,344,81,41,9,442.0,3.0,105,73,12,7,0,1,-2,-1,-1,-13
149,345,81,41,9,445.0,2.0,95,73,12,7,0,1,0,0,0,-13
150,347,76,38,4,448.0,1.0,105,74,7,4,7,5,3,2,-1,-14
151,350,78,39,6,451.0,1.0,95,74,9,5,9,6,2,1,1,-13
152,353,71,35,11,454.0,3.0,105,75,2,1,2,2,-2,-1,-1,-14
153,354,71,35,11,457.0,1.0,95,75,2,1,2,2,0,0,0,-14
154,357,83,42,11,460.0,1.0,105,76,14,8,2,2,2,1,1,-13
155,360,83,42,11,463.0,1.0,95,76,14,8,2,2,0,0,0,-13
156,363,80,40,8,466.0,1.0,105,77,11,6,11,7,-3,-2,-1,-14
157,366,80,40,8,469.0,1.0,95,77,11,6,11,7,0,0,0,-14
158,369,76,38,4,472.0,1.0,105,78,7,4,7,5,-4,-2,-1,-15
159,372,76,38,4,475.0,1.0,95,78,7,4,7,5,0,0,0,-15
160,375,81,41,9,478.0,3.0,105,79,12,7,0,1,1,1,1,-14
161,376,81,41,9,481.0,1.0,95,79,12,7,0,1,0,0,0,-14
