,index,midi_note_num,diatonic_note_num,chromatic_pitch_class,onset,duration,velocity,bar_count,relative_chromatic_pitch,relative_diatonic_pitch,chromatic_scale_degree,diatonic_scale_degree,chromatic_interval,diatonic_interval,parsons_code,parsons_cumsum
0,0,74,37,2,0.0,3.0,105,0,12,7,0,1,0,0,0,0
1,2,71,35,11,4.0,2.0,95,0,9,5,9,6,-2,-1,-1,-1
2,4,67,33,7,8.0,1.0,105,1,5,3,5,4,-2,-1,-1,-2
3,8,71,35,11,12.0,2.0,95,1,9,5,9,6,2,1,1,-1
4,10,69,34,9,16.0,3.0,105,2,7,4,7,5,0,0,-1,-2
5,12,74,37,2,20.0,1.0,95,2,12,7,0,1,1,1,1,-1
6,16,74,37,2,24.0,2.0,105,3,12,7,0,1,5,3,0,-1
7,18,78,39,6,28.0,1.0,95,3,16,9,4,3,2,1,1,0
8,22,74,37,2,32.0,2.0,105,4,12,7,0,1,1,1,-1,-1
9,25,71,35,11,36.0,2.0,95,4,9,5,9,6,-2,-1,-1,-2
10,27,62,30,2,40.0,1.0,105,5,0,0,0,1,-7,-4,-1,-3
11,31,74,37,2,44.0,1.0,95,5,12,7,0,1,1,1,1,-2
12,35,78,39,6,48.0,1.0,105,6,16,9,4,3,2,1,1,-1
13,39,78,39,6,52.0,1.0,95,6,16,9,4,3,2,1,0,-1
14,43,74,37,2,56.0,1.0,105,7,12,7,0,1,1,1,-1,-2
15,47,74,37,2,60.0,2.0,95,7,12,7,0,1,1,1,0,-2
16,50,74,37,2,64.0,3.0,105,8,12,7,0,1,1,1,0,-2
17,52,71,35,11,68.0,2.0,95,8,9,5,9,6,-2,-1,-1,-3
18,54,67,33,7,72.0,1.0,105,9,5,3,5,4,-2,-1,-1,-4
19,58,71,35,11,76.0,2.0,95,9,9,5,9,6,2,1,1,-3
20,60,69,34,9,80.0,3.0,105,10,7,4,7,5,0,0,-1,-4
21,62,74,37,2,84.0,1.0,95,10,12,7,0,1,1,1,1,-3
22,66,74,37,2,88.0,2.0,105,11,12,7,0,1,5,3,0,-3
23,68,78,39,6,92.0,1.0,95,11,16,9,4,3,2,1,1,-2
24,72,74,37,2,96.0,2.0,105,12,12,7,0,1,1,1,-1,-3
25,75,71,35,11,100.0,2.0,95,12,9,5,9,6,-2,-1,-1,-4
26,77,62,30,2,104.0,1.0,105,13,0,0,0,1,-7,-4,-1,-5
27,81,74,37,2,108.0,1.0,95,13,12,7,0,1,1,1,1,-4
28,85,78,39,6,112.0,1.0,105,14,16,9,4,3,2,1,1,-3
29,89,78,39,6,116.0,1.0,95,14,16,9,4,3,2,1,0,-3
30,93,74,37,2,120.0,1.0,105,15,12,7,0,1,1,1,-1,-4
31,97,74,37,2,124.0,1.0,95,15,12,7,0,1,1,1,0,-4
32,101,81,41,9,128.0,2.0,105,16,19,11,7,5,2,1,1,-3
33,105,78,39,6,132.0,1.0,95,16,16,9,4,3,-1,-1,-1,-4
34,109,71,35,11,136.0,1.0,105,17,9,5,9,6,-2,-1,-1,-5
35,113,64,31,4,140.0,1.0,95,17,2,1,2,2,-2,-1,-1,-6
36,117,57,27,9,144.0,2.0,105,18,-5,-3,7,5,-5,-3,-1,-7
37,121,66,32,6,148.0,1.0,95,18,4,2,4,3,4,2,1,-6
38,125,74,37,2,152.0,1.0,105,19,12,7,0,1,1,1,1,-5
39,129,66,32,6,156.0,1.0,95,19,4,2,4,3,-1,-1,-1,-6
40,132,73,36,1,160.0,1.0,105,20,11,6,11,7,-1,-1,1,-5
41,136,76,38,4,164.0,1.0,95,20,14,8,2,2,-2,-1,1,-4
42,140,78,39,6,168.0,1.0,105,21,16,9,4,3,2,1,1,-3
43,144,81,41,9,172.0,2.0,95,21,19,11,7,5,1,1,1,-2
44,146,76,38,4,176.0,1.0,105,22,14,8,2,2,-2,-1,-1,-3
45,150,78,39,6,180.0,1.0,95,22,16,9,4,3,2,1,1,-2
46,154,74,37,2,184.0,3.0,105,23,12,7,0,1,1,1,-1,-3
47,156,74,37,2,188.0,1.0,95,23,12,7,0,1,1,1,0,-3
48,160,81,41,9,192.0,2.0,105,24,19,11,7,5,2,1,1,-2
49,164,78,39,6,196.0,1.0,95,24,16,9,4,3,-1,-1,-1,-3
50,168,71,35,11,200.0,1.0,105,25,9,5,9,6,-2,-1,-1,-4
51,172,64,31,4,204.0,1.0,95,25,2,1,2,2,-2,-1,-1,-5
52,176,57,27,9,208.0,2.0,105,26,-5,-3,7,5,-5,-3,-1,-6
53,180,66,32,6,212.0,1.0,95,26,4,2,4,3,4,2,1,-5
54,184,74,37,2,216.0,1.0,105,27,12,7,0,1,1,1,1,-4
55,188,66,32,6,220.0,1.0,95,27,4,2,4,3,-1,-1,-1,-5
56,191,73,36,1,224.0,1.0,105,28,11,6,11,7,-1,-1,1,-4
57,195,76,38,4,228.0,1.0,95,28,14,8,2,2,-2,-1,1,-3
58,199,78,39,6,232.0,1.0,105,29,16,9,4,3,2,1,1,-2
59,203,81,41,9,236.0,2.0,95,29,19,11,7,5,1,1,1,-1
60,205,76,38,4,240.0,1.0,105,30,14,8,2,2,-2,-1,-1,-2
61,209,78,39,6,244.0,1.0,95,30,16,9,4,3,2,1,1,-1
62,213,74,37,2,248.0,3.0,105,31,12,7,0,1,1,1,-1,-2
63,215,74,37,2,252.0,1.0,95,31,12,7,0,1,1,1,0,-2
64,219,81,41,9,256.0,0.5,105,32,19,11,7,5,2,1,1,-1
65,223,80,40,8,264.0,1.0,105,33,18,10,6,4,0,0,-1,-2
66,227,76,38,4,268.0,1.0,95,33,14,8,2,2,2,1,-1,-3
67,230,76,38,4,272.0,1.0,105,34,14,8,2,2,2,1,0,-3
68,234,73,36,1,276.0,2.0,95,34,11,6,11,7,-1,-1,-1,-4
69,237,76,38,4,280.0,1.0,105,35,14,8,2,2,-2,-1,1,-3
70,241,69,34,9,288.0,2.0,105,36,7,4,7,5,-2,-1,-1,-4
71,244,73,36,1,292.0,1.0,95,36,11,6,11,7,2,1,1,-3
72,248,74,37,2,296.0,1.0,105,37,12,7,0,1,1,1,1,-2
73,252,76,38,4,300.0,3.0,95,37,14,8,2,2,2,1,1,-1
74,254,78,39,6,304.0,1.0,105,38,16,9,4,3,2,1,1,0
75,258,81,41,9,308.0,1.0,95,38,19,11,7,5,1,1,1,1
76,262,78,39,6,312.0,1.0,105,39,16,9,4,3,-3,-2,-1,0
77,266,76,38,4,316.0,4.0,95,39,14,8,2,2,2,1,-1,-1
78,267,81,41,9,320.0,0.5,105,40,19,11,7,5,5,3,1,0
79,271,80,40,8,328.0,1.0,105,41,18,10,6,4,0,0,-1,-1
80,275,76,38,4,332.0,1.0,95,41,14,8,2,2,2,1,-1,-2
81,278,76,38,4,336.0,1.0,105,42,14,8,2,2,2,1,0,-2
82,282,73,36,1,340.0,2.0,95,42,11,6,11,7,-1,-1,-1,-3
83,284,69,34,9,344.0,1.0,105,43,7,4,7,5,0,0,-1,-4
84,288,74,37,2,348.0,1.0,95,43,12,7,0,1,1,1,1,-3
85,295,69,34,9,352.0,2.0,105,44,7,4,7,5,-2,-1,-1,-4
86,298,73,36,1,356.0,1.0,95,44,11,6,11,7,2,1,1,-3
87,302,74,37,2,360.0,1.0,105,45,12,7,0,1,1,1,1,-2
88,306,76,38,4,364.0,2.0,95,45,14,8,2,2,2,1,1,-1
89,309,80,40,8,368.0,1.0,105,46,18,10,6,4,4,2,1,0
90,311,79,40,7,372.0,1.0,95,46,17,10,5,4,-2,-1,-1,-1
91,315,79,40,7,376.0,1.0,105,47,17,10,5,4,1,1,0,-1
92,319,74,37,2,380.0,2.0,95,47,12,7,0,1,1,1,-1,-2
