,index,midi_note_num,diatonic_note_num,chromatic_pitch_class,onset,duration,velocity,bar_count,relative_chromatic_pitch,relative_diatonic_pitch,chromatic_scale_degree,diatonic_scale_degree,chromatic_interval,diatonic_interval,parsons_code,parsons_cumsum
0,1,62,30,2,1.0,1.0,105,0,-5,-3,7,5,0,0,0,0
1,4,67,33,7,4.0,2.0,95,0,0,0,0,1,5,3,1,1
2,6,62,30,2,7.0,0.5,105,1,-5,-3,7,5,-2,-1,-1,0
3,10,67,33,7,10.0,2.0,95,1,0,0,0,1,5,3,1,1
4,12,74,37,2,13.0,1.0,105,2,7,4,7,5,3,2,1,2
5,15,72,36,0,16.0,1.0,95,2,5,3,5,4,-2,-1,-1,1
6,18,62,30,2,19.0,1.0,105,3,-5,-3,7,5,-4,-2,-1,0
7,21,65,32,5,22.0,2.0,95,3,-2,-1,10,7,3,2,1,1
8,23,67,33,7,25.0,0.5,105,4,0,0,0,1,5,3,1,2
9,26,65,32,5,28.0,1.0,95,4,-2,-1,10,7,3,2,-1,1
10,29,62,30,2,31.0,1.0,105,5,-5,-3,7,5,0,0,-1,0
11,32,67,33,7,34.0,1.0,95,5,0,0,0,1,0,0,1,1
12,35,71,35,11,37.0,1.0,105,6,4,2,4,3,4,2,1,2
13,38,72,36,0,40.0,1.0,95,6,5,3,5,4,1,1,1,3
14,41,62,30,2,43.0,0.5,105,7,-5,-3,7,5,-4,-2,-1,2
15,45,67,33,7,46.0,1.0,95,7,0,0,0,1,5,3,1,3
16,48,57,27,9,49.0,1.0,105,8,-10,-6,2,2,-3,-2,-1,2
17,51,55,26,7,52.0,2.0,95,8,-12,-7,0,1,-2,-1,-1,1
18,53,62,30,2,55.0,1.0,105,9,-5,-3,7,5,-2,-1,1,2
19,56,67,33,7,58.0,2.0,95,9,0,0,0,1,5,3,1,3
20,58,62,30,2,61.0,0.5,105,10,-5,-3,7,5,-2,-1,-1,2
21,62,67,33,7,64.0,2.0,95,10,0,0,0,1,5,3,1,3
22,64,74,37,2,67.0,1.0,105,11,7,4,7,5,3,2,1,4
23,67,72,36,0,70.0,1.0,95,11,5,3,5,4,-2,-1,-1,3
24,70,62,30,2,73.0,1.0,105,12,-5,-3,7,5,-4,-2,-1,2
25,73,65,32,5,76.0,2.0,95,12,-2,-1,10,7,3,2,1,3
26,75,67,33,7,79.0,0.5,105,13,0,0,0,1,5,3,1,4
27,78,65,32,5,82.0,1.0,95,13,-2,-1,10,7,3,2,-1,3
28,81,62,30,2,85.0,1.0,105,14,-5,-3,7,5,0,0,-1,2
29,84,67,33,7,88.0,1.0,95,14,0,0,0,1,0,0,1,3
30,87,71,35,11,91.0,1.0,105,15,4,2,4,3,4,2,1,4
31,90,72,36,0,94.0,1.0,95,15,5,3,5,4,1,1,1,5
32,93,62,30,2,97.0,0.5,105,16,-5,-3,7,5,-4,-2,-1,4
33,97,67,33,7,100.0,1.0,95,16,0,0,0,1,5,3,1,5
34,100,57,27,9,103.0,1.0,105,17,-10,-6,2,2,-3,-2,-1,4
35,103,55,26,7,106.0,2.0,95,17,-12,-7,0,1,-2,-1,-1,3
36,105,67,33,7,109.0,2.0,105,18,0,0,0,1,5,3,1,4
37,107,72,36,0,112.0,1.0,95,18,5,3,5,4,5,3,1,5
38,109,62,30,2,115.0,1.0,105,19,-5,-3,7,5,-9,-5,-1,4
39,112,65,32,5,118.0,1.0,95,19,-2,-1,10,7,0,0,1,5
40,115,62,30,2,121.0,1.0,105,20,-5,-3,7,5,-3,-2,-1,4
41,118,67,33,7,124.0,1.0,95,20,0,0,0,1,0,0,1,5
42,121,64,31,4,127.0,0.5,105,21,-3,-2,9,6,-3,-2,-1,4
43,125,60,29,0,130.0,1.0,95,21,-7,-4,5,4,-4,-2,-1,3
44,130,62,30,2,133.0,1.0,105,22,-5,-3,7,5,2,1,1,4
45,133,71,35,11,136.0,1.0,95,22,4,2,4,3,4,2,1,5
46,136,72,36,0,139.0,1.0,105,23,5,3,5,4,1,1,1,6
47,139,62,30,2,142.0,1.0,95,23,-5,-3,7,5,-4,-2,-1,5
48,142,71,35,11,145.0,1.0,105,24,4,2,4,3,5,3,1,6
49,145,72,36,0,148.0,1.0,95,24,5,3,5,4,1,1,1,7
50,148,62,30,2,151.0,1.0,105,25,-5,-3,7,5,-4,-2,-1,6
51,151,67,33,7,154.0,2.0,95,25,0,0,0,1,1,1,1,7
52,153,67,33,7,157.0,2.0,105,26,0,0,0,1,5,3,0,7
53,155,72,36,0,160.0,1.0,95,26,5,3,5,4,5,3,1,8
54,157,62,30,2,163.0,1.0,105,27,-5,-3,7,5,-9,-5,-1,7
55,160,65,32,5,166.0,1.0,95,27,-2,-1,10,7,0,0,1,8
56,163,62,30,2,169.0,1.0,105,28,-5,-3,7,5,-3,-2,-1,7
57,166,67,33,7,172.0,1.0,95,28,0,0,0,1,0,0,1,8
58,169,64,31,4,175.0,0.5,105,29,-3,-2,9,6,-3,-2,-1,7
59,173,60,29,0,178.0,1.0,95,29,-7,-4,5,4,-4,-2,-1,6
60,178,62,30,2,181.0,1.0,105,30,-5,-3,7,5,2,1,1,7
61,181,71,35,11,184.0,1.0,95,30,4,2,4,3,4,2,1,8
62,184,72,36,0,187.0,1.0,105,31,5,3,5,4,1,1,1,9
63,187,62,30,2,190.0,1.0,95,31,-5,-3,7,5,-4,-2,-1,8
64,190,71,35,11,193.0,1.0,105,32,4,2,4,3,5,3,1,9
65,193,72,36,0,196.0,1.0,95,32,5,3,5,4,1,1,1,10
66,196,62,30,2,199.0,1.0,105,33,-5,-3,7,5,-4,-2,-1,9
67,199,67,33,7,202.0,2.0,95,33,0,0,0,1,1,1,1,10
68,201,74,37,2,205.0,2.0,105,34,7,4,7,5,3,2,1,11
69,203,79,40,7,208.0,1.0,95,34,12,7,0,1,5,3,1,12
70,205,69,34,9,211.0,1.0,105,35,2,1,2,2,-9,-5,-1,11
71,208,72,36,0,214.0,1.0,95,35,5,3,5,4,0,0,1,12
72,211,74,37,2,217.0,1.0,105,36,7,4,7,5,2,1,1,13
73,214,78,39,6,220.0,1.0,95,36,11,6,11,7,4,2,1,14
74,217,67,33,7,223.0,1.0,105,37,0,0,0,1,-4,-2,-1,13
75,220,67,33,7,226.0,1.0,95,37,0,0,0,1,0,0,0,13
76,223,79,40,7,229.0,1.0,105,38,12,7,0,1,5,3,1,14
77,226,79,40,7,232.0,1.0,95,38,12,7,0,1,-2,-1,0,14
78,229,67,33,7,235.0,1.0,105,39,0,0,0,1,-4,-2,-1,13
79,232,69,34,9,238.0,1.0,95,39,2,1,2,2,-2,-1,1,14
80,235,67,33,7,241.0,1.0,105,40,0,0,0,1,5,3,-1,13
81,238,74,37,2,244.0,1.0,95,40,7,4,7,5,3,2,1,14
82,241,72,36,0,247.0,1.0,105,41,5,3,5,4,-2,-1,-1,13
83,244,67,33,7,250.0,2.0,95,41,0,0,0,1,1,1,-1,12
84,246,74,37,2,253.0,2.0,105,42,7,4,7,5,3,2,1,13
85,248,79,40,7,256.0,1.0,95,42,12,7,0,1,5,3,1,14
86,250,69,34,9,259.0,1.0,105,43,2,1,2,2,-9,-5,-1,13
87,253,72,36,0,262.0,1.0,95,43,5,3,5,4,0,0,1,14
88,256,74,37,2,265.0,1.0,105,44,7,4,7,5,2,1,1,15
89,259,78,39,6,268.0,1.0,95,44,11,6,11,7,4,2,1,16
90,262,67,33,7,271.0,1.0,105,45,0,0,0,1,-4,-2,-1,15
91,265,67,33,7,274.0,1.0,95,45,0,0,0,1,0,0,0,15
92,268,79,40,7,277.0,1.0,105,46,12,7,0,1,5,3,1,16
93,271,79,40,7,280.0,1.0,95,46,12,7,0,1,-2,-1,0,16
94,274,67,33,7,283.0,1.0,105,47,0,0,0,1,-4,-2,-1,15
95,277,69,34,9,286.0,1.0,95,47,2,1,2,2,-2,-1,1,16
96,280,67,33,7,289.0,1.0,105,48,0,0,0,1,5,3,-1,15
97,283,74,37,2,292.0,1.0,95,48,7,4,7,5,3,2,1,16
98,286,72,36,0,295.0,1.0,105,49,5,3,5,4,-2,-1,-1,15
99,289,67,33,7,298.0,2.0,95,49,0,0,0,1,1,1,-1,14
