,index,midi_note_num,diatonic_note_num,chromatic_pitch_class,onset,duration,velocity,bar_count,relative_chromatic_pitch,relative_diatonic_pitch,chromatic_scale_degree,diatonic_scale_degree,chromatic_interval,diatonic_interval,parsons_code,parsons_cumsum
0,0,74,37,2,0.0,1.0,105,0,7,4,7,5,0,0,0,0
1,6,69,34,9,6.0,2.0,105,1,2,1,2,2,-3,-2,-1,-1
2,11,74,37,2,12.0,1.0,105,2,7,4,7,5,2,1,1,0
3,17,70,35,10,18.0,1.0,105,3,3,2,3,3,-2,-1,-1,-1
4,25,63,31,3,30.0,2.0,105,4,-4,-2,8,6,-4,-2,-1,-2
5,30,70,35,10,36.0,1.0,105,5,3,2,3,3,7,4,1,-1
6,36,62,30,2,42.0,4.0,105,6,-5,-3,7,5,-1,-1,-1,-2
7,38,74,37,2,48.0,1.0,105,7,7,4,7,5,0,0,1,-1
8,44,69,34,9,54.0,2.0,105,8,2,1,2,2,-3,-2,-1,-2
9,49,74,37,2,60.0,1.0,105,9,7,4,7,5,2,1,1,-1
10,55,70,35,10,66.0,1.0,105,10,3,2,3,3,-2,-1,-1,-2
11,63,69,34,9,78.0,1.0,105,11,2,1,2,2,2,1,-1,-3
12,69,74,37,2,84.0,1.0,105,12,7,4,7,5,2,1,1,-2
13,75,67,33,7,90.0,4.0,105,13,0,0,0,1,-2,-1,-1,-3
14,77,67,33,7,96.0,2.0,105,14,0,0,0,1,0,0,0,-3
15,82,63,31,3,102.0,3.0,105,15,-4,-2,8,6,-4,-2,-1,-4
16,86,72,36,0,108.0,1.0,105,16,5,3,5,4,2,1,1,-3
17,92,62,30,2,114.0,3.0,105,17,-5,-3,7,5,-8,-5,-1,-4
18,96,72,36,0,120.0,1.0,105,18,5,3,5,4,2,1,1,-3
19,102,75,38,3,126.0,3.0,105,19,8,5,8,6,5,3,1,-2
20,106,69,34,9,132.0,1.0,105,20,2,1,2,2,-1,-1,-1,-3
21,112,66,32,6,138.0,2.0,105,21,-1,-1,11,7,-1,-1,-1,-4
22,115,62,30,2,144.0,4.0,105,22,-5,-3,7,5,2,1,-1,-5
23,117,67,33,7,150.0,2.0,105,23,0,0,0,1,5,3,1,-4
24,122,63,31,3,156.0,3.0,105,24,-4,-2,8,6,-4,-2,-1,-5
25,126,72,36,0,162.0,1.0,105,25,5,3,5,4,2,1,1,-4
26,132,62,30,2,168.0,3.0,105,26,-5,-3,7,5,-8,-5,-1,-5
27,136,72,36,0,174.0,1.0,105,27,5,3,5,4,2,1,1,-4
28,142,75,38,3,180.0,2.0,105,28,8,5,8,6,5,3,1,-3
29,147,74,37,2,186.0,2.0,105,29,7,4,7,5,-1,-1,-1,-4
30,152,66,32,6,192.0,2.0,105,30,-1,-1,11,7,-8,-5,-1,-5
31,155,67,33,7,198.0,6.0,105,31,0,0,0,1,1,1,1,-4
32,260,66,32,6,6.0,3.0,105,32,-1,-1,11,7,4,2,-1,-5
33,264,70,35,10,12.0,1.0,105,33,3,2,3,3,1,1,1,-4
34,270,67,33,7,18.0,2.0,105,34,0,0,0,1,-2,-1,-1,-5
35,273,58,28,10,24.0,2.0,105,35,-9,-5,3,3,-9,-5,-1,-6
36,275,67,33,7,30.0,2.0,105,36,0,0,0,1,5,3,1,-5
37,277,74,37,2,36.0,2.0,105,37,7,4,7,5,2,1,1,-4
38,279,72,36,0,42.0,2.0,105,38,5,3,5,4,0,0,-1,-5
39,281,70,35,10,48.0,1.0,105,39,3,2,3,3,0,0,-1,-6
40,287,66,32,6,54.0,4.0,105,40,-1,-1,11,7,-3,-2,-1,-7
41,290,70,35,10,60.0,1.0,105,41,3,2,3,3,1,1,1,-6
42,295,62,30,2,66.0,2.0,105,42,-5,-3,7,5,-5,-3,-1,-7
43,297,58,28,10,72.0,2.0,105,43,-9,-5,3,3,0,0,-1,-8
44,300,57,27,9,78.0,3.0,105,44,-10,-6,2,2,-6,-4,-1,-9
45,304,70,35,10,84.0,1.0,105,45,3,2,3,3,1,1,1,-8
46,310,58,28,10,90.0,1.0,105,46,-9,-5,3,3,-2,-1,-1,-9
47,316,62,30,2,96.0,4.0,105,47,-5,-3,7,5,2,1,1,-8
48,318,55,26,7,102.0,2.0,105,48,-12,-7,0,1,-3,-2,-1,-9
49,321,63,31,3,108.0,4.0,105,49,-4,-2,8,6,-2,-1,1,-8
50,323,58,28,10,114.0,2.0,105,50,-9,-5,3,3,-7,-4,-1,-9
51,328,63,31,3,120.0,1.0,105,51,-4,-2,8,6,8,5,1,-8
52,333,67,33,7,126.0,2.0,105,52,0,0,0,1,2,1,1,-7
53,335,63,31,3,132.0,3.0,105,53,-4,-2,8,6,-2,-1,-1,-8
54,338,66,32,6,138.0,8.0,105,54,-1,-1,11,7,3,1,1,-7
55,343,70,35,10,150.0,2.0,105,55,3,2,3,3,-2,-1,1,-6
56,348,69,34,9,156.0,1.0,105,56,2,1,2,2,-1,-1,-1,-7
57,351,67,33,7,162.0,2.0,105,57,0,0,0,1,4,2,-1,-8
58,354,67,33,7,168.0,4.0,105,58,0,0,0,1,2,1,0,-8
59,356,67,33,7,174.0,4.0,105,59,0,0,0,1,2,1,0,-8
60,358,67,33,7,180.0,4.0,105,60,0,0,0,1,4,2,0,-8
61,361,65,32,5,186.0,4.0,105,61,-2,-1,10,7,-2,-1,-1,-9
62,368,58,28,10,198.0,6.0,105,62,-9,-5,3,3,1,1,-1,-10
63,370,62,30,2,6.0,10.0,105,63,-5,-3,7,5,-5,-3,1,-9
64,372,55,26,7,18.0,10.0,105,64,-12,-7,0,1,-7,-4,-1,-10
65,374,60,29,0,30.0,10.0,105,65,-7,-4,5,4,2,1,1,-9
66,376,55,26,7,42.0,10.0,105,66,-12,-7,0,1,-5,-3,-1,-10
67,378,62,30,2,54.0,10.0,105,67,-5,-3,7,5,7,4,1,-9
68,380,55,26,7,66.0,10.0,105,68,-12,-7,0,1,-7,-4,-1,-10
69,382,62,30,2,78.0,10.0,105,69,-5,-3,7,5,7,4,1,-9
70,384,62,30,2,90.0,2.0,105,70,-5,-3,7,5,0,0,0,-9
71,387,60,29,0,102.0,10.0,105,71,-7,-4,5,4,-2,-1,-1,-10
72,389,55,26,7,114.0,4.0,105,72,-12,-7,0,1,-7,-4,-1,-11
73,391,60,29,0,120.0,10.0,105,73,-7,-4,5,4,-2,-1,1,-10
74,393,61,29,1,132.0,4.0,105,74,-6,-4,6,4,1,0,1,-9
75,395,62,30,2,138.0,2.0,105,75,-5,-3,7,5,1,1,1,-8
76,398,55,26,7,150.0,6.0,105,76,-12,-7,0,1,-2,-1,-1,-9
77,399,60,29,0,156.0,10.0,105,77,-7,-4,5,4,5,3,1,-8
78,401,58,28,10,168.0,2.0,105,78,-9,-5,3,3,-2,-1,-1,-9
79,403,63,31,3,174.0,2.0,105,79,-4,-2,8,6,8,5,1,-8
80,405,60,29,0,180.0,2.0,105,80,-7,-4,5,4,0,0,-1,-9
81,407,58,28,10,186.0,4.0,105,81,-9,-5,3,3,1,1,-1,-10
82,409,57,27,9,192.0,4.0,105,82,-10,-6,2,2,-5,-3,-1,-11
83,411,55,26,7,198.0,6.0,105,83,-12,-7,0,1,-7,-4,-1,-12
