,index,midi_note_num,diatonic_note_num,chromatic_pitch_class,onset,duration,velocity,bar_count,relative_chromatic_pitch,relative_diatonic_pitch,chromatic_scale_degree,diatonic_scale_degree,chromatic_interval,diatonic_interval,parsons_code,parsons_cumsum
0,3,67,33,7,2.0,1.5,105,0,0,0,0,1,0,0,0,0
1,7,71,35,11,6.0,0.5,95,0,4,2,4,3,2,1,1,1
2,11,64,31,4,10.0,2.0,105,1,-3,-2,9,6,-3,-2,-1,0
3,13,62,30,2,14.0,2.0,95,1,-5,-3,7,5,0,0,-1,-1
4,17,67,33,7,18.0,1.5,105,2,0,0,0,1,1,1,1,0
5,21,71,35,11,22.0,0.5,95,2,4,2,4,3,2,1,1,1
6,25,71,35,11,26.0,2.0,105,3,4,2,4,3,-3,-2,0,1
7,27,69,34,9,30.0,2.0,95,3,2,1,2,2,0,0,-1,0
8,31,67,33,7,34.0,1.5,105,4,0,0,0,1,1,1,-1,-1
9,35,71,35,11,38.0,0.5,95,4,4,2,4,3,2,1,1,0
10,39,64,31,4,42.0,0.5,105,5,-3,-2,9,6,-3,-2,-1,-1
11,43,64,31,4,46.0,0.5,95,5,-3,-2,9,6,0,0,0,-1
12,47,62,30,2,50.0,1.5,105,6,-5,-3,7,5,-2,-1,-1,-2
13,51,62,30,2,54.0,1.5,95,6,-5,-3,7,5,-12,-7,0,-2
14,55,67,33,7,58.0,4.0,105,7,0,0,0,1,-2,-1,1,-1
15,56,67,33,7,62.0,2.0,95,7,0,0,0,1,0,0,0,-1
16,60,67,33,7,66.0,1.5,105,8,0,0,0,1,1,1,0,-1
17,64,71,35,11,70.0,0.5,95,8,4,2,4,3,2,1,1,0
18,68,64,31,4,74.0,2.0,105,9,-3,-2,9,6,-3,-2,-1,-1
19,70,62,30,2,78.0,2.0,95,9,-5,-3,7,5,0,0,-1,-2
20,74,67,33,7,82.0,1.5,105,10,0,0,0,1,1,1,1,-1
21,78,71,35,11,86.0,0.5,95,10,4,2,4,3,2,1,1,0
22,82,71,35,11,90.0,2.0,105,11,4,2,4,3,-3,-2,0,0
23,84,69,34,9,94.0,2.0,95,11,2,1,2,2,0,0,-1,-1
24,88,67,33,7,98.0,1.5,105,12,0,0,0,1,1,1,-1,-2
25,92,71,35,11,102.0,0.5,95,12,4,2,4,3,2,1,1,-1
26,96,64,31,4,106.0,0.5,105,13,-3,-2,9,6,-3,-2,-1,-2
27,100,64,31,4,110.0,0.5,95,13,-3,-2,9,6,0,0,0,-2
28,104,62,30,2,114.0,1.5,105,14,-5,-3,7,5,-2,-1,-1,-3
29,108,62,30,2,118.0,1.5,95,14,-5,-3,7,5,-12,-7,0,-3
30,112,67,33,7,122.0,4.0,105,15,0,0,0,1,-2,-1,1,-2
31,113,67,33,7,126.0,2.0,95,15,0,0,0,1,0,0,0,-2
32,116,71,35,11,130.0,2.0,105,16,4,2,4,3,4,2,1,-1
33,118,62,30,2,134.0,2.0,95,16,-5,-3,7,5,-12,-7,-1,-2
34,121,64,31,4,138.0,2.0,105,17,-3,-2,9,6,-2,-1,1,-1
35,123,62,30,2,142.0,2.0,95,17,-5,-3,7,5,0,0,-1,-2
36,126,72,36,0,146.0,2.0,105,18,5,3,5,4,1,1,1,-1
37,128,69,34,9,150.0,1.5,95,18,2,1,2,2,5,3,-1,-2
38,132,66,32,6,154.0,0.5,105,19,-1,-1,11,7,-1,-1,-1,-3
39,135,62,30,2,158.0,2.0,95,19,-5,-3,7,5,0,0,-1,-4
40,138,74,37,2,162.0,2.0,105,20,7,4,7,5,2,1,1,-3
41,140,71,35,11,166.0,1.5,95,20,4,2,4,3,9,5,-1,-4
42,144,64,31,4,170.0,0.5,105,21,-3,-2,9,6,-2,-1,-1,-5
43,148,64,31,4,174.0,0.5,95,21,-3,-2,9,6,0,0,0,-5
44,152,62,30,2,178.0,1.5,105,22,-5,-3,7,5,-2,-1,-1,-6
45,156,62,30,2,182.0,1.5,95,22,-5,-3,7,5,-12,-7,0,-6
46,160,67,33,7,186.0,4.0,105,23,0,0,0,1,-2,-1,1,-5
47,161,67,33,7,190.0,2.0,95,23,0,0,0,1,0,0,0,-5
48,164,71,35,11,194.0,2.0,105,24,4,2,4,3,4,2,1,-4
49,166,62,30,2,198.0,2.0,95,24,-5,-3,7,5,-12,-7,-1,-5
50,169,64,31,4,202.0,2.0,105,25,-3,-2,9,6,-2,-1,1,-4
51,171,62,30,2,206.0,2.0,95,25,-5,-3,7,5,0,0,-1,-5
52,174,72,36,0,210.0,2.0,105,26,5,3,5,4,1,1,1,-4
53,176,69,34,9,214.0,1.5,95,26,2,1,2,2,5,3,-1,-5
54,180,66,32,6,218.0,0.5,105,27,-1,-1,11,7,-1,-1,-1,-6
55,183,62,30,2,222.0,2.0,95,27,-5,-3,7,5,0,0,-1,-7
56,186,74,37,2,226.0,2.0,105,28,7,4,7,5,2,1,1,-6
57,188,71,35,11,230.0,1.5,95,28,4,2,4,3,9,5,-1,-7
58,192,64,31,4,234.0,0.5,105,29,-3,-2,9,6,-2,-1,-1,-8
59,196,64,31,4,238.0,0.5,95,29,-3,-2,9,6,0,0,0,-8
60,200,62,30,2,242.0,1.5,105,30,-5,-3,7,5,-2,-1,-1,-9
61,204,62,30,2,246.0,1.5,95,30,-5,-3,7,5,-12,-7,0,-9
62,208,67,33,7,250.0,4.0,105,31,0,0,0,1,-2,-1,1,-8
63,209,67,33,7,254.0,2.0,95,31,0,0,0,1,0,0,0,-8
64,213,67,33,7,258.0,1.5,105,32,0,0,0,1,1,1,0,-8
65,217,71,35,11,262.0,0.5,95,32,4,2,4,3,2,1,1,-7
66,221,64,31,4,266.0,0.5,105,33,-3,-2,9,6,-3,-2,-1,-8
67,225,64,31,4,270.0,0.5,95,33,-3,-2,9,6,0,0,0,-8
68,229,62,30,2,274.0,1.5,105,34,-5,-3,7,5,-2,-1,-1,-9
69,233,71,35,11,278.0,0.5,95,34,4,2,4,3,0,0,1,-8
70,237,64,31,4,282.0,0.5,105,35,-3,-2,9,6,-3,-2,-1,-9
71,241,66,32,6,286.0,1.5,95,35,-1,-1,11,7,-1,-1,1,-8
72,245,67,33,7,290.0,1.5,105,36,0,0,0,1,1,1,1,-7
73,249,71,35,11,294.0,0.5,95,36,4,2,4,3,2,1,1,-6
74,253,64,31,4,298.0,0.5,105,37,-3,-2,9,6,-3,-2,-1,-7
75,257,64,31,4,302.0,0.5,95,37,-3,-2,9,6,0,0,0,-7
76,261,62,30,2,306.0,1.5,105,38,-5,-3,7,5,-2,-1,-1,-8
77,265,62,30,2,310.0,1.5,95,38,-5,-3,7,5,-12,-7,0,-8
78,269,67,33,7,314.0,4.0,105,39,0,0,0,1,-2,-1,1,-7
79,270,67,33,7,318.0,2.0,95,39,0,0,0,1,0,0,0,-7
80,274,67,33,7,322.0,1.5,105,40,0,0,0,1,1,1,0,-7
81,278,71,35,11,326.0,0.5,95,40,4,2,4,3,2,1,1,-6
82,282,64,31,4,330.0,0.5,105,41,-3,-2,9,6,-3,-2,-1,-7
83,286,64,31,4,334.0,0.5,95,41,-3,-2,9,6,0,0,0,-7
84,290,62,30,2,338.0,1.5,105,42,-5,-3,7,5,-2,-1,-1,-8
85,294,71,35,11,342.0,0.5,95,42,4,2,4,3,0,0,1,-7
86,298,64,31,4,346.0,0.5,105,43,-3,-2,9,6,-3,-2,-1,-8
87,302,66,32,6,350.0,1.5,95,43,-1,-1,11,7,-1,-1,1,-7
88,306,67,33,7,354.0,1.5,105,44,0,0,0,1,1,1,1,-6
89,310,71,35,11,358.0,0.5,95,44,4,2,4,3,2,1,1,-5
90,314,64,31,4,362.0,0.5,105,45,-3,-2,9,6,-3,-2,-1,-6
91,318,64,31,4,366.0,0.5,95,45,-3,-2,9,6,0,0,0,-6
92,322,62,30,2,370.0,1.5,105,46,-5,-3,7,5,-2,-1,-1,-7
93,326,62,30,2,374.0,1.5,95,46,-5,-3,7,5,-12,-7,0,-7
94,330,67,33,7,378.0,4.0,105,47,0,0,0,1,-2,-1,1,-6
95,331,67,33,7,382.0,2.0,95,47,0,0,0,1,0,0,0,-6
96,334,71,35,11,386.0,2.0,105,48,4,2,4,3,2,1,1,-5
97,336,71,35,11,390.0,2.0,95,48,4,2,4,3,0,0,0,-5
98,339,67,33,7,394.0,1.5,105,49,0,0,0,1,-2,-1,-1,-6
99,343,71,35,11,398.0,1.5,95,49,4,2,4,3,2,1,1,-5
100,347,69,34,9,402.0,2.0,105,50,2,1,2,2,7,4,-1,-6
101,349,69,34,9,406.0,2.0,95,50,2,1,2,2,0,0,0,-6
102,352,66,32,6,410.0,1.5,105,51,-1,-1,11,7,-1,-1,-1,-7
103,356,69,34,9,414.0,1.5,95,51,2,1,2,2,2,1,1,-6
104,360,71,35,11,418.0,2.0,105,52,4,2,4,3,9,5,1,-5
105,362,71,35,11,422.0,2.0,95,52,4,2,4,3,0,0,0,-5
106,365,74,37,2,426.0,1.5,105,53,7,4,7,5,2,1,1,-4
107,369,64,31,4,430.0,0.5,95,53,-3,-2,9,6,2,1,-1,-5
108,373,62,30,2,434.0,1.5,105,54,-5,-3,7,5,-2,-1,-1,-6
109,377,62,30,2,438.0,1.5,95,54,-5,-3,7,5,-12,-7,0,-6
110,381,67,33,7,442.0,4.0,105,55,0,0,0,1,-2,-1,1,-5
111,382,67,33,7,446.0,2.0,95,55,0,0,0,1,0,0,0,-5
112,385,71,35,11,450.0,2.0,105,56,4,2,4,3,2,1,1,-4
113,387,71,35,11,454.0,2.0,95,56,4,2,4,3,0,0,0,-4
114,390,67,33,7,458.0,1.5,105,57,0,0,0,1,-2,-1,-1,-5
115,394,71,35,11,462.0,1.5,95,57,4,2,4,3,2,1,1,-4
116,398,69,34,9,466.0,2.0,105,58,2,1,2,2,7,4,-1,-5
117,400,69,34,9,470.0,2.0,95,58,2,1,2,2,0,0,0,-5
118,403,66,32,6,474.0,1.5,105,59,-1,-1,11,7,-1,-1,-1,-6
119,407,69,34,9,478.0,2.0,95,59,2,1,2,2,2,1,1,-5
120,410,74,37,2,482.0,1.5,105,60,7,4,7,5,2,1,1,-4
121,414,71,35,11,486.0,1.5,95,60,4,2,4,3,2,1,-1,-5
122,418,67,33,7,490.0,1.5,105,61,0,0,0,1,1,1,-1,-6
123,422,69,34,9,494.0,1.5,95,61,2,1,2,2,2,1,1,-5
124,426,62,30,2,498.0,1.5,105,62,-5,-3,7,5,-2,-1,-1,-6
125,430,62,30,2,502.0,1.5,95,62,-5,-3,7,5,-12,-7,0,-6
126,434,67,33,7,506.0,4.0,105,63,0,0,0,1,-2,-1,1,-5
127,435,67,33,7,510.0,2.0,95,63,0,0,0,1,0,0,0,-5
