,index,midi_note_num,diatonic_note_num,chromatic_pitch_class,onset,duration,velocity,bar_count,relative_chromatic_pitch,relative_diatonic_pitch,chromatic_scale_degree,diatonic_scale_degree,chromatic_interval,diatonic_interval,parsons_code,parsons_cumsum
0,0,67,33,7,0.0,1.33,105,0,0,0,0,1,0,0,0,0
1,4,79,40,7,4.0,1.33,95,0,12,7,0,1,5,3,1,1
2,9,79,40,7,8.0,1.33,105,1,12,7,0,1,5,3,0,1
3,13,74,37,2,12.0,2.0,95,1,7,4,7,5,-2,-1,-1,0
4,17,79,40,7,16.0,1.33,105,2,12,7,0,1,5,3,1,1
5,21,72,36,0,20.0,1.33,95,2,5,3,5,4,1,1,-1,0
6,25,71,35,11,24.0,1.33,105,3,4,2,4,3,-1,-1,-1,-1
7,29,62,30,2,28.0,1.33,95,3,-5,-3,7,5,-4,-2,-1,-2
8,33,67,33,7,32.0,1.33,105,4,0,0,0,1,5,3,1,-1
9,37,79,40,7,36.0,1.33,95,4,12,7,0,1,5,3,1,0
10,42,79,40,7,40.0,1.33,105,5,12,7,0,1,5,3,0,0
11,46,74,37,2,44.0,2.0,95,5,7,4,7,5,-2,-1,-1,-1
12,50,79,40,7,48.0,1.33,105,6,12,7,0,1,5,3,1,0
13,54,72,36,0,52.0,1.33,95,6,5,3,5,4,-2,-1,-1,-1
14,58,67,33,7,56.0,2.0,105,7,0,0,0,1,-2,-1,-1,-2
15,61,67,33,7,60.0,1.0,95,7,0,0,0,1,1,1,0,-2
16,66,67,33,7,64.0,1.33,105,8,0,0,0,1,0,0,0,-2
17,70,79,40,7,68.0,1.33,95,8,12,7,0,1,5,3,1,-1
18,75,79,40,7,72.0,1.33,105,9,12,7,0,1,5,3,0,-1
19,79,74,37,2,76.0,2.0,95,9,7,4,7,5,-2,-1,-1,-2
20,83,79,40,7,80.0,1.33,105,10,12,7,0,1,5,3,1,-1
21,87,72,36,0,84.0,1.33,95,10,5,3,5,4,1,1,-1,-2
22,91,71,35,11,88.0,1.33,105,11,4,2,4,3,-1,-1,-1,-3
23,95,62,30,2,92.0,1.33,95,11,-5,-3,7,5,-4,-2,-1,-4
24,99,67,33,7,96.0,1.33,105,12,0,0,0,1,5,3,1,-3
25,103,79,40,7,100.0,1.33,95,12,12,7,0,1,5,3,1,-2
26,108,79,40,7,104.0,1.33,105,13,12,7,0,1,5,3,0,-2
27,112,74,37,2,108.0,2.0,95,13,7,4,7,5,-2,-1,-1,-3
28,116,79,40,7,112.0,1.33,105,14,12,7,0,1,5,3,1,-2
29,120,72,36,0,116.0,1.33,95,14,5,3,5,4,-2,-1,-1,-3
30,124,67,33,7,120.0,2.0,105,15,0,0,0,1,-2,-1,-1,-4
31,127,67,33,7,124.0,1.0,95,15,0,0,0,1,1,1,0,-4
32,132,62,30,2,128.0,2.0,105,16,-5,-3,7,5,-5,-3,-1,-5
33,133,67,33,7,130.0,1.33,105,17,0,0,0,1,5,3,1,-4
34,137,71,35,11,134.0,1.33,95,17,4,2,4,3,2,1,1,-3
35,141,72,36,0,138.0,1.33,105,18,5,3,5,4,1,1,1,-2
36,145,74,37,2,142.0,1.33,95,18,7,4,7,5,-2,-1,1,-1
37,150,79,40,7,146.0,1.33,105,19,12,7,0,1,1,1,1,0
38,154,72,36,0,150.0,1.33,95,19,5,3,5,4,5,3,-1,-1
39,158,71,35,11,154.0,1.33,105,20,4,2,4,3,-1,-1,-1,-2
40,162,62,30,2,158.0,1.33,95,20,-5,-3,7,5,-4,-2,-1,-3
41,166,67,33,7,162.0,1.33,105,21,0,0,0,1,5,3,1,-2
42,170,71,35,11,166.0,1.33,95,21,4,2,4,3,2,1,1,-1
43,174,72,36,0,170.0,1.33,105,22,5,3,5,4,1,1,1,0
44,178,74,37,2,174.0,1.33,95,22,7,4,7,5,-2,-1,1,1
45,183,79,40,7,178.0,1.33,105,23,12,7,0,1,1,1,1,2
46,187,72,36,0,182.0,1.33,95,23,5,3,5,4,5,3,-1,1
47,191,67,33,7,186.0,2.0,105,24,0,0,0,1,-2,-1,-1,0
48,193,67,33,7,190.0,2.0,95,24,0,0,0,1,0,0,0,0
49,195,67,33,7,194.0,1.33,105,25,0,0,0,1,5,3,0,0
50,199,71,35,11,198.0,1.33,95,25,4,2,4,3,2,1,1,1
51,203,72,36,0,202.0,1.33,105,26,5,3,5,4,1,1,1,2
52,207,74,37,2,206.0,1.33,95,26,7,4,7,5,-2,-1,1,3
53,212,79,40,7,210.0,1.33,105,27,12,7,0,1,1,1,1,4
54,216,72,36,0,214.0,1.33,95,27,5,3,5,4,5,3,-1,3
55,220,71,35,11,218.0,1.33,105,28,4,2,4,3,-1,-1,-1,2
56,224,62,30,2,222.0,1.33,95,28,-5,-3,7,5,-4,-2,-1,1
57,228,67,33,7,226.0,1.33,105,29,0,0,0,1,5,3,1,2
58,232,71,35,11,230.0,1.33,95,29,4,2,4,3,2,1,1,3
59,236,72,36,0,234.0,1.33,105,30,5,3,5,4,1,1,1,4
60,240,74,37,2,238.0,1.33,95,30,7,4,7,5,-2,-1,1,5
61,245,79,40,7,242.0,1.33,105,31,12,7,0,1,1,1,1,6
62,249,72,36,0,246.0,1.33,95,31,5,3,5,4,5,3,-1,5
63,253,67,33,7,250.0,2.0,105,32,0,0,0,1,-2,-1,-1,4
64,255,67,33,7,254.0,2.0,95,32,0,0,0,1,0,0,0,4
65,257,67,33,7,258.0,1.33,105,33,0,0,0,1,0,0,0,4
66,261,79,40,7,262.0,1.33,95,33,12,7,0,1,1,1,1,5
67,265,78,39,6,266.0,1.33,105,34,11,6,11,7,4,2,-1,4
68,269,74,37,2,270.0,1.33,95,34,7,4,7,5,2,1,-1,3
69,273,79,40,7,274.0,1.33,105,35,12,7,0,1,5,3,1,4
70,277,72,36,0,278.0,1.33,95,35,5,3,5,4,5,3,-1,3
71,281,71,35,11,282.0,1.33,105,36,4,2,4,3,-1,-1,-1,2
72,285,62,30,2,286.0,1.33,95,36,-5,-3,7,5,-4,-2,-1,1
73,289,67,33,7,290.0,1.33,105,37,0,0,0,1,5,3,1,2
74,293,79,40,7,294.0,1.33,95,37,12,7,0,1,1,1,1,3
75,297,78,39,6,298.0,1.33,105,38,11,6,11,7,11,6,-1,2
76,301,74,37,2,302.0,2.0,95,38,7,4,7,5,-2,-1,-1,1
77,305,79,40,7,306.0,1.33,105,39,12,7,0,1,1,1,1,2
78,309,72,36,0,310.0,1.33,95,39,5,3,5,4,5,3,-1,1
79,313,67,33,7,314.0,2.0,105,40,0,0,0,1,-2,-1,-1,0
80,315,67,33,7,318.0,2.0,95,40,0,0,0,1,0,0,0,0
81,317,67,33,7,322.0,1.33,105,41,0,0,0,1,0,0,0,0
82,321,79,40,7,326.0,1.33,95,41,12,7,0,1,1,1,1,1
83,325,78,39,6,330.0,1.33,105,42,11,6,11,7,4,2,-1,0
84,329,74,37,2,334.0,1.33,95,42,7,4,7,5,2,1,-1,-1
85,333,79,40,7,338.0,1.33,105,43,12,7,0,1,5,3,1,0
86,337,72,36,0,342.0,1.33,95,43,5,3,5,4,5,3,-1,-1
87,341,71,35,11,346.0,1.33,105,44,4,2,4,3,-1,-1,-1,-2
88,345,62,30,2,350.0,1.33,95,44,-5,-3,7,5,-4,-2,-1,-3
89,349,67,33,7,354.0,1.33,105,45,0,0,0,1,5,3,1,-2
90,353,79,40,7,358.0,1.33,95,45,12,7,0,1,1,1,1,-1
91,357,78,39,6,362.0,1.33,105,46,11,6,11,7,11,6,-1,-2
92,361,74,37,2,366.0,2.0,95,46,7,4,7,5,-2,-1,-1,-3
93,365,79,40,7,370.0,1.33,105,47,12,7,0,1,1,1,1,-2
94,369,72,36,0,374.0,1.33,95,47,5,3,5,4,5,3,-1,-3
95,373,67,33,7,378.0,2.0,105,48,0,0,0,1,-2,-1,-1,-4
96,375,67,33,7,382.0,2.0,95,48,0,0,0,1,0,0,0,-4
