,index,midi_note_num,diatonic_note_num,chromatic_pitch_class,onset,duration,velocity,bar_count,relative_chromatic_pitch,relative_diatonic_pitch,chromatic_scale_degree,diatonic_scale_degree,chromatic_interval,diatonic_interval,parsons_code,parsons_cumsum
0,0,76,38,4,0.0,2.0,105,0,12,7,0,1,0,0,0,0
1,2,72,36,0,3.0,1.0,95,0,8,5,8,6,-2,-1,-1,-1
2,5,67,33,7,6.0,1.0,105,1,3,2,3,3,-2,-1,-1,-2
3,8,64,31,4,9.0,2.0,95,1,0,0,0,1,-2,-1,-1,-3
4,10,76,38,4,12.0,2.0,105,2,12,7,0,1,5,3,1,-2
5,12,79,40,7,15.0,1.0,95,2,15,9,3,3,1,1,1,-1
6,15,79,40,7,18.0,1.0,105,3,15,9,3,3,3,2,0,-1
7,18,76,38,4,21.0,3.0,95,3,12,7,0,1,-2,-1,-1,-2
8,19,81,41,9,24.0,2.0,105,4,17,10,5,4,5,3,1,-1
9,21,78,39,6,27.0,1.0,95,4,14,8,2,2,-1,-1,-1,-2
10,24,72,36,0,30.0,1.0,105,5,8,5,8,6,-2,-1,-1,-3
11,27,69,34,9,33.0,2.0,95,5,5,3,5,4,-2,-1,-1,-4
12,29,69,34,9,36.0,2.0,105,6,5,3,5,4,5,3,0,-4
13,31,72,36,0,39.0,1.0,95,6,8,5,8,6,1,1,1,-3
14,34,72,36,0,42.0,1.0,105,7,8,5,8,6,3,2,0,-3
15,37,69,34,9,45.0,3.0,95,7,5,3,5,4,-2,-1,-1,-4
16,38,71,35,11,48.0,1.0,105,8,7,4,7,5,2,1,1,-3
17,41,71,35,11,51.0,1.0,95,8,7,4,7,5,0,0,0,-3
18,44,79,40,7,54.0,1.0,105,9,15,9,3,3,8,5,1,-2
19,47,72,36,0,57.0,1.0,95,9,8,5,8,6,-7,-4,-1,-3
20,50,71,35,11,60.0,1.0,105,10,7,4,7,5,-1,-1,-1,-4
21,53,71,35,11,63.0,1.0,95,10,7,4,7,5,0,0,0,-4
22,56,79,40,7,66.0,1.0,105,11,15,9,3,3,8,5,1,-3
23,59,72,36,0,69.0,1.0,95,11,8,5,8,6,-7,-4,-1,-4
24,62,78,39,6,72.0,1.0,105,12,14,8,2,2,6,3,1,-3
25,65,79,40,7,75.0,1.0,95,12,15,9,3,3,8,5,1,-2
26,68,78,39,6,78.0,1.0,105,13,14,8,2,2,6,3,-1,-3
27,71,79,40,7,81.0,1.0,95,13,15,9,3,3,8,5,1,-2
28,74,71,35,11,84.0,1.0,105,14,7,4,7,5,-1,-1,-1,-3
29,77,76,38,4,87.0,1.0,95,14,12,7,0,1,1,0,1,-2
30,80,75,38,3,90.0,1.0,105,15,11,7,11,1,-4,-2,-1,-3
31,83,79,40,7,93.0,1.0,95,15,15,9,3,3,1,1,1,-2
32,86,76,38,4,96.0,1.0,105,16,12,7,0,1,-7,-4,-1,-3
33,89,83,42,11,99.0,1.0,95,16,19,11,7,5,0,0,1,-2
34,92,75,38,3,102.0,1.0,105,17,11,7,11,1,-1,0,-1,-3
35,95,78,39,6,105.0,1.0,95,17,14,8,2,2,-5,-3,1,-2
36,98,74,37,2,108.0,1.0,105,18,10,6,10,7,3,2,-1,-3
37,101,83,42,11,111.0,1.0,95,18,19,11,7,5,2,1,1,-2
38,104,73,36,1,114.0,1.0,105,19,9,5,9,6,-1,-1,-1,-3
39,107,81,41,9,117.0,1.0,95,19,17,10,5,4,0,0,1,-2
40,110,72,36,0,120.0,1.0,105,20,8,5,8,6,-1,0,-1,-3
41,113,72,36,0,123.0,1.0,95,20,8,5,8,6,-7,-4,0,-3
42,116,71,35,11,126.0,1.0,105,21,7,4,7,5,-8,-5,-1,-4
43,119,71,35,11,129.0,1.0,95,21,7,4,7,5,-8,-5,0,-4
44,122,70,35,10,132.0,1.0,105,22,6,4,6,5,-9,-5,-1,-5
45,125,70,35,10,135.0,1.0,95,22,6,4,6,5,-9,-5,0,-5
46,128,71,35,11,138.0,1.0,105,23,7,4,7,5,-8,-5,1,-4
47,131,78,39,6,141.0,1.0,95,23,14,8,2,2,-1,-1,1,-3
48,134,76,38,4,144.0,1.0,105,24,12,7,0,1,1,0,-1,-4
49,137,83,42,11,147.0,1.0,95,24,19,11,7,5,0,0,1,-3
50,140,75,38,3,150.0,1.0,105,25,11,7,11,1,-1,0,-1,-4
51,143,78,39,6,153.0,1.0,95,25,14,8,2,2,-5,-3,1,-3
52,146,74,37,2,156.0,1.0,105,26,10,6,10,7,3,2,-1,-4
53,149,83,42,11,159.0,1.0,95,26,19,11,7,5,2,1,1,-3
54,152,73,36,1,162.0,1.0,105,27,9,5,9,6,-1,-1,-1,-4
55,155,81,41,9,165.0,1.0,95,27,17,10,5,4,0,0,1,-3
56,158,72,36,0,168.0,1.0,105,28,8,5,8,6,-1,0,-1,-4
57,161,72,36,0,171.0,1.0,95,28,8,5,8,6,-7,-4,0,-4
58,164,71,35,11,174.0,1.0,105,29,7,4,7,5,-8,-5,-1,-5
59,167,71,35,11,177.0,1.0,95,29,7,4,7,5,-8,-5,0,-5
60,170,70,35,10,180.0,1.0,105,30,6,4,6,5,-9,-5,-1,-6
61,173,70,35,10,183.0,1.0,95,30,6,4,6,5,-9,-5,0,-6
62,176,71,35,11,186.0,1.0,105,31,7,4,7,5,-8,-5,1,-5
63,179,78,39,6,189.0,1.0,95,31,14,8,2,2,-1,-1,1,-4
64,182,76,38,4,192.0,2.0,105,32,12,7,0,1,1,0,-1,-5
65,184,72,36,0,195.0,1.0,95,32,8,5,8,6,-2,-1,-1,-6
66,187,67,33,7,198.0,1.0,105,33,3,2,3,3,-2,-1,-1,-7
67,190,64,31,4,201.0,2.0,95,33,0,0,0,1,-2,-1,-1,-8
68,192,76,38,4,204.0,2.0,105,34,12,7,0,1,5,3,1,-7
69,194,79,40,7,207.0,1.0,95,34,15,9,3,3,1,1,1,-6
70,197,79,40,7,210.0,1.0,105,35,15,9,3,3,3,2,0,-6
71,200,76,38,4,213.0,3.0,95,35,12,7,0,1,-2,-1,-1,-7
72,201,81,41,9,216.0,2.0,105,36,17,10,5,4,5,3,1,-6
73,203,78,39,6,219.0,1.0,95,36,14,8,2,2,-1,-1,-1,-7
74,206,72,36,0,222.0,1.0,105,37,8,5,8,6,-2,-1,-1,-8
75,209,69,34,9,225.0,2.0,95,37,5,3,5,4,-2,-1,-1,-9
76,211,69,34,9,228.0,2.0,105,38,5,3,5,4,5,3,0,-9
77,213,72,36,0,231.0,1.0,95,38,8,5,8,6,1,1,1,-8
78,216,72,36,0,234.0,1.0,105,39,8,5,8,6,3,2,0,-8
79,219,69,34,9,237.0,3.0,95,39,5,3,5,4,-2,-1,-1,-9
80,220,71,35,11,240.0,1.0,105,40,7,4,7,5,2,1,1,-8
81,223,71,35,11,243.0,1.0,95,40,7,4,7,5,0,0,0,-8
82,226,79,40,7,246.0,1.0,105,41,15,9,3,3,8,5,1,-7
83,229,72,36,0,249.0,1.0,95,41,8,5,8,6,-7,-4,-1,-8
84,232,71,35,11,252.0,1.0,105,42,7,4,7,5,-1,-1,-1,-9
85,235,71,35,11,255.0,1.0,95,42,7,4,7,5,0,0,0,-9
86,238,79,40,7,258.0,1.0,105,43,15,9,3,3,8,5,1,-8
87,241,72,36,0,261.0,1.0,95,43,8,5,8,6,-7,-4,-1,-9
88,244,78,39,6,264.0,1.0,105,44,14,8,2,2,6,3,1,-8
89,247,79,40,7,267.0,1.0,95,44,15,9,3,3,8,5,1,-7
90,250,78,39,6,270.0,1.0,105,45,14,8,2,2,6,3,-1,-8
91,253,79,40,7,273.0,1.0,95,45,15,9,3,3,8,5,1,-7
92,256,71,35,11,276.0,1.0,105,46,7,4,7,5,-1,-1,-1,-8
93,259,76,38,4,279.0,1.0,95,46,12,7,0,1,1,0,1,-7
94,262,75,38,3,282.0,1.0,105,47,11,7,11,1,-4,-2,-1,-8
95,265,79,40,7,285.0,1.0,95,47,15,9,3,3,1,1,1,-7
96,268,76,38,4,288.0,1.0,105,48,12,7,0,1,-7,-4,-1,-8
97,271,83,42,11,291.0,1.0,95,48,19,11,7,5,0,0,1,-7
98,274,75,38,3,294.0,1.0,105,49,11,7,11,1,-1,0,-1,-8
99,277,78,39,6,297.0,1.0,95,49,14,8,2,2,-5,-3,1,-7
100,280,74,37,2,300.0,1.0,105,50,10,6,10,7,3,2,-1,-8
101,283,83,42,11,303.0,1.0,95,50,19,11,7,5,2,1,1,-7
102,286,73,36,1,306.0,1.0,105,51,9,5,9,6,-1,-1,-1,-8
103,289,81,41,9,309.0,1.0,95,51,17,10,5,4,0,0,1,-7
104,292,72,36,0,312.0,1.0,105,52,8,5,8,6,-1,0,-1,-8
105,295,72,36,0,315.0,1.0,95,52,8,5,8,6,-7,-4,0,-8
106,298,71,35,11,318.0,1.0,105,53,7,4,7,5,-8,-5,-1,-9
107,301,71,35,11,321.0,1.0,95,53,7,4,7,5,-8,-5,0,-9
108,304,70,35,10,324.0,1.0,105,54,6,4,6,5,-9,-5,-1,-10
109,307,70,35,10,327.0,1.0,95,54,6,4,6,5,-9,-5,0,-10
110,310,71,35,11,330.0,1.0,105,55,7,4,7,5,-8,-5,1,-9
111,313,78,39,6,333.0,1.0,95,55,14,8,2,2,-1,-1,1,-8
112,316,76,38,4,336.0,1.0,105,56,12,7,0,1,1,0,-1,-9
113,319,83,42,11,339.0,1.0,95,56,19,11,7,5,0,0,1,-8
114,322,75,38,3,342.0,1.0,105,57,11,7,11,1,-1,0,-1,-9
115,325,78,39,6,345.0,1.0,95,57,14,8,2,2,-5,-3,1,-8
116,328,74,37,2,348.0,1.0,105,58,10,6,10,7,3,2,-1,-9
117,331,83,42,11,351.0,1.0,95,58,19,11,7,5,2,1,1,-8
118,334,73,36,1,354.0,1.0,105,59,9,5,9,6,-1,-1,-1,-9
119,337,81,41,9,357.0,1.0,95,59,17,10,5,4,0,0,1,-8
120,340,72,36,0,360.0,1.0,105,60,8,5,8,6,-1,0,-1,-9
121,343,72,36,0,363.0,1.0,95,60,8,5,8,6,-7,-4,0,-9
122,346,71,35,11,366.0,1.0,105,61,7,4,7,5,-8,-5,-1,-10
123,349,71,35,11,369.0,1.0,95,61,7,4,7,5,-8,-5,0,-10
124,352,70,35,10,372.0,1.0,105,62,6,4,6,5,-9,-5,-1,-11
125,355,70,35,10,375.0,1.0,95,62,6,4,6,5,-9,-5,0,-11
126,358,71,35,11,378.0,1.0,105,63,7,4,7,5,-8,-5,1,-10
127,361,78,39,6,381.0,1.0,95,63,14,8,2,2,-1,-1,1,-9
128,364,76,38,4,384.0,2.0,105,64,12,7,0,1,1,0,-1,-10
129,366,72,36,0,387.0,1.0,95,64,8,5,8,6,-2,-1,-1,-11
130,369,67,33,7,390.0,1.0,105,65,3,2,3,3,-2,-1,-1,-12
131,372,64,31,4,393.0,2.0,95,65,0,0,0,1,-2,-1,-1,-13
132,374,76,38,4,396.0,6.0,105,66,12,7,0,1,1,0,1,-12
133,375,88,45,4,402.0,6.0,105,67,24,14,0,1,12,7,1,-11
