,index,midi_note_num,diatonic_note_num,chromatic_pitch_class,onset,duration,velocity,bar_count,relative_chromatic_pitch,relative_diatonic_pitch,chromatic_scale_degree,diatonic_scale_degree,chromatic_interval,diatonic_interval,parsons_code,parsons_cumsum
0,0,62,30,2,0.0,1.0,105,0,2,1,2,2,0,0,0,0
1,6,69,34,9,4.0,1.0,95,0,9,5,9,6,-2,-1,1,1
2,10,64,31,4,8.0,1.0,105,1,4,2,4,3,2,1,-1,0
3,14,74,37,2,12.0,1.0,95,1,14,8,2,2,2,1,1,1
4,18,62,30,2,16.0,1.0,105,2,2,1,2,2,-2,-1,-1,0
5,24,69,34,9,20.0,1.0,95,2,9,5,9,6,-2,-1,1,1
6,28,64,31,4,24.0,1.0,105,3,4,2,4,3,2,1,-1,0
7,32,64,31,4,28.0,1.0,95,3,4,2,4,3,-3,-2,0,0
8,36,62,30,2,32.0,2.0,105,4,2,1,2,2,-2,-1,-1,-1
9,39,69,34,9,36.0,1.0,95,4,9,5,9,6,-2,-1,1,0
10,43,64,31,4,40.0,1.0,105,5,4,2,4,3,2,1,-1,-1
11,47,74,37,2,44.0,1.0,95,5,14,8,2,2,2,1,1,0
12,51,76,38,4,48.0,1.0,105,6,16,9,4,3,2,1,1,1
13,55,69,34,9,52.0,1.0,95,6,9,5,9,6,-3,-2,-1,0
14,59,64,31,4,56.0,1.0,105,7,4,2,4,3,2,1,-1,-1
15,63,64,31,4,60.0,1.0,95,7,4,2,4,3,-3,-2,0,-1
16,67,62,30,2,64.0,1.0,105,8,2,1,2,2,-2,-1,-1,-2
17,73,69,34,9,68.0,1.0,95,8,9,5,9,6,-2,-1,1,-1
18,77,64,31,4,72.0,1.0,105,9,4,2,4,3,2,1,-1,-2
19,81,74,37,2,76.0,1.0,95,9,14,8,2,2,2,1,1,-1
20,85,62,30,2,80.0,1.0,105,10,2,1,2,2,-2,-1,-1,-2
21,91,69,34,9,84.0,1.0,95,10,9,5,9,6,-2,-1,1,-1
22,95,64,31,4,88.0,1.0,105,11,4,2,4,3,2,1,-1,-2
23,99,64,31,4,92.0,1.0,95,11,4,2,4,3,-3,-2,0,-2
24,103,62,30,2,96.0,2.0,105,12,2,1,2,2,-2,-1,-1,-3
25,106,69,34,9,100.0,1.0,95,12,9,5,9,6,-2,-1,1,-2
26,110,64,31,4,104.0,1.0,105,13,4,2,4,3,2,1,-1,-3
27,114,74,37,2,108.0,1.0,95,13,14,8,2,2,2,1,1,-2
28,118,76,38,4,112.0,1.0,105,14,16,9,4,3,2,1,1,-1
29,122,69,34,9,116.0,1.0,95,14,9,5,9,6,-3,-2,-1,-2
30,126,64,31,4,120.0,1.0,105,15,4,2,4,3,2,1,-1,-3
31,130,64,31,4,124.0,1.0,95,15,4,2,4,3,-3,-2,0,-3
32,133,77,39,5,128.0,1.0,105,16,17,10,5,4,15,9,1,-2
33,139,76,38,4,132.0,1.0,95,16,16,9,4,3,2,1,-1,-3
34,143,72,36,0,136.0,1.0,105,17,12,7,0,1,-2,-1,-1,-4
35,147,72,36,0,140.0,1.0,95,17,12,7,0,1,3,2,0,-4
36,151,77,39,5,144.0,1.0,105,18,17,10,5,4,1,1,1,-3
37,155,76,38,4,148.0,1.0,95,18,16,9,4,3,-1,-1,-1,-4
38,159,76,38,4,152.0,1.0,105,19,16,9,4,3,2,1,0,-4
39,163,76,38,4,156.0,1.0,95,19,16,9,4,3,-3,-2,0,-4
40,167,77,39,5,160.0,1.0,105,20,17,10,5,4,1,1,1,-3
41,173,76,38,4,164.0,1.0,95,20,16,9,4,3,2,1,-1,-4
42,177,72,36,0,168.0,2.0,105,21,12,7,0,1,-2,-1,-1,-5
43,180,67,33,7,172.0,1.0,95,21,7,4,7,5,-5,-3,-1,-6
44,184,76,38,4,176.0,1.0,105,22,16,9,4,3,2,1,1,-5
45,188,69,34,9,180.0,1.0,95,22,9,5,9,6,-3,-2,-1,-6
46,192,64,31,4,184.0,1.0,105,23,4,2,4,3,2,1,-1,-7
47,196,64,31,4,188.0,1.0,95,23,4,2,4,3,-3,-2,0,-7
48,199,77,39,5,192.0,1.0,105,24,17,10,5,4,15,9,1,-6
49,205,76,38,4,196.0,1.0,95,24,16,9,4,3,2,1,-1,-7
50,209,72,36,0,200.0,1.0,105,25,12,7,0,1,-2,-1,-1,-8
51,213,72,36,0,204.0,1.0,95,25,12,7,0,1,3,2,0,-8
52,217,77,39,5,208.0,1.0,105,26,17,10,5,4,1,1,1,-7
53,221,76,38,4,212.0,1.0,95,26,16,9,4,3,-1,-1,-1,-8
54,225,76,38,4,216.0,1.0,105,27,16,9,4,3,2,1,0,-8
55,229,76,38,4,220.0,1.0,95,27,16,9,4,3,-3,-2,0,-8
56,233,77,39,5,224.0,1.0,105,28,17,10,5,4,1,1,1,-7
57,239,76,38,4,228.0,1.0,95,28,16,9,4,3,2,1,-1,-8
58,243,72,36,0,232.0,2.0,105,29,12,7,0,1,-2,-1,-1,-9
59,246,67,33,7,236.0,1.0,95,29,7,4,7,5,-5,-3,-1,-10
60,250,76,38,4,240.0,1.0,105,30,16,9,4,3,2,1,1,-9
61,254,69,34,9,244.0,1.0,95,30,9,5,9,6,-3,-2,-1,-10
62,258,64,31,4,248.0,1.0,105,31,4,2,4,3,2,1,-1,-11
63,262,64,31,4,252.0,1.0,95,31,4,2,4,3,-3,-2,0,-11
64,265,81,41,9,256.0,2.0,105,32,21,12,9,6,19,11,1,-10
65,268,81,41,9,260.0,1.0,95,32,21,12,9,6,-2,-1,0,-10
66,272,79,40,7,264.0,1.0,105,33,19,11,7,5,1,1,-1,-11
67,278,79,40,7,268.0,1.0,95,33,19,11,7,5,-2,-1,0,-11
68,282,76,38,4,272.0,1.0,105,34,16,9,4,3,-3,-2,-1,-12
69,286,81,41,9,276.0,1.0,95,34,21,12,9,6,2,1,1,-11
70,290,76,38,4,280.0,1.0,105,35,16,9,4,3,-3,-2,-1,-12
71,294,76,38,4,284.0,1.0,95,35,16,9,4,3,-3,-2,0,-12
72,300,81,41,9,288.0,1.0,105,36,21,12,9,6,2,1,1,-11
73,306,81,41,9,292.0,1.0,95,36,21,12,9,6,-2,-1,0,-11
74,310,79,40,7,296.0,1.0,105,37,19,11,7,5,1,1,-1,-12
75,316,79,40,7,300.0,1.0,95,37,19,11,7,5,-2,-1,0,-12
76,320,67,33,7,304.0,1.0,105,38,7,4,7,5,-4,-2,-1,-13
77,324,76,38,4,308.0,1.0,95,38,16,9,4,3,2,1,1,-12
78,328,69,34,9,312.0,1.0,105,39,9,5,9,6,-3,-2,-1,-13
79,332,64,31,4,316.0,1.0,95,39,4,2,4,3,-3,-2,-1,-14
80,338,81,41,9,320.0,2.0,105,40,21,12,9,6,2,1,1,-13
81,341,81,41,9,324.0,1.0,95,40,21,12,9,6,-2,-1,0,-13
82,345,79,40,7,328.0,1.0,105,41,19,11,7,5,1,1,-1,-14
83,351,79,40,7,332.0,1.0,95,41,19,11,7,5,-2,-1,0,-14
84,355,76,38,4,336.0,1.0,105,42,16,9,4,3,-3,-2,-1,-15
85,359,81,41,9,340.0,1.0,95,42,21,12,9,6,2,1,1,-14
86,363,76,38,4,344.0,1.0,105,43,16,9,4,3,-3,-2,-1,-15
87,367,76,38,4,348.0,1.0,95,43,16,9,4,3,-3,-2,0,-15
88,373,81,41,9,352.0,1.0,105,44,21,12,9,6,2,1,1,-14
89,379,81,41,9,356.0,1.0,95,44,21,12,9,6,-2,-1,0,-14
90,383,79,40,7,360.0,1.0,105,45,19,11,7,5,1,1,-1,-15
91,389,79,40,7,364.0,1.0,95,45,19,11,7,5,-2,-1,0,-15
92,393,67,33,7,368.0,1.0,105,46,7,4,7,5,-4,-2,-1,-16
93,397,76,38,4,372.0,1.0,95,46,16,9,4,3,2,1,1,-15
94,401,69,34,9,376.0,1.0,105,47,9,5,9,6,-3,-2,-1,-16
95,405,64,31,4,380.0,1.0,95,47,4,2,4,3,-3,-2,-1,-17
96,409,69,34,9,384.0,1.0,105,48,9,5,9,6,-3,-2,1,-16
97,413,74,37,2,388.0,1.0,95,48,14,8,2,2,2,1,1,-15
98,417,69,34,9,392.0,1.0,105,49,9,5,9,6,-5,-3,-1,-16
99,421,72,36,0,396.0,1.0,95,49,12,7,0,1,1,1,1,-15
100,425,69,34,9,400.0,1.0,105,50,9,5,9,6,-3,-2,-1,-16
101,429,76,38,4,404.0,0.5,95,50,16,9,4,3,4,2,1,-15
102,433,76,38,4,408.0,1.0,105,51,16,9,4,3,2,1,0,-15
103,437,76,38,4,412.0,1.0,95,51,16,9,4,3,-3,-2,0,-15
104,441,74,37,2,416.0,1.0,105,52,14,8,2,2,2,1,-1,-16
105,447,74,37,2,420.0,1.0,95,52,14,8,2,2,-2,-1,0,-16
106,451,72,36,0,424.0,1.0,105,53,12,7,0,1,1,1,-1,-17
107,457,72,36,0,428.0,1.0,95,53,12,7,0,1,-2,-1,0,-17
108,461,62,30,2,432.0,2.0,105,54,2,1,2,2,-2,-1,-1,-18
109,465,69,34,9,436.0,1.0,95,54,9,5,9,6,2,1,1,-17
110,469,69,34,9,440.0,1.0,105,55,9,5,9,6,-3,-2,0,-17
111,473,64,31,4,444.0,1.0,95,55,4,2,4,3,-1,-1,-1,-18
112,477,69,34,9,448.0,1.0,105,56,9,5,9,6,-3,-2,1,-17
113,481,74,37,2,452.0,1.0,95,56,14,8,2,2,2,1,1,-16
114,485,69,34,9,456.0,1.0,105,57,9,5,9,6,-5,-3,-1,-17
115,489,72,36,0,460.0,1.0,95,57,12,7,0,1,1,1,1,-16
116,493,69,34,9,464.0,1.0,105,58,9,5,9,6,-3,-2,-1,-17
117,497,76,38,4,468.0,0.5,95,58,16,9,4,3,4,2,1,-16
118,501,76,38,4,472.0,1.0,105,59,16,9,4,3,2,1,0,-16
119,505,76,38,4,476.0,1.0,95,59,16,9,4,3,-3,-2,0,-16
120,509,74,37,2,480.0,1.0,105,60,14,8,2,2,2,1,-1,-17
121,515,74,37,2,484.0,1.0,95,60,14,8,2,2,-2,-1,0,-17
122,519,72,36,0,488.0,1.0,105,61,12,7,0,1,1,1,-1,-18
123,525,72,36,0,492.0,1.0,95,61,12,7,0,1,-2,-1,0,-18
124,529,62,30,2,496.0,2.0,105,62,2,1,2,2,-2,-1,-1,-19
125,533,69,34,9,500.0,1.0,95,62,9,5,9,6,2,1,1,-18
126,537,69,34,9,504.0,1.0,105,63,9,5,9,6,-3,-2,0,-18
127,541,64,31,4,508.0,1.0,95,63,4,2,4,3,0,0,-1,-19
